2999.69	330.75
2998.44	396.9
2997.19	350.736
2995.94	392.757
2994.7	310.546
2993.45	336.534
2992.2	372.528
2990.95	356.444
2989.7	256.276
2988.45	330.299
2987.2	286.211
2985.96	334.189
2984.71	324.128
2983.46	320.072
2982.21	324.018
2980.96	291.966
2979.71	331.905
2978.45	277.873
2977.2	333.79
2975.95	277.778
2974.7	275.733
2973.45	295.663
2972.2	317.584
2970.95	313.535
2969.69	327.459
2968.44	325.407
2967.19	289.423
2965.94	333.278
2964.68	349.184
2963.43	301.245
2962.18	331.113
2960.92	329.062
2959.67	313.054
2958.42	318.982
2957.16	368.76
2955.91	332.823
2954.65	298.892
2953.4	338.687
2952.14	308.75
2950.89	362.47
2949.63	324.574
2948.38	336.464
2947.12	350.341
2945.86	328.389
2944.61	276.595
2943.35	344.193
2942.1	304.35
2940.84	286.398
2939.58	334.074
2938.32	302.206
2937.07	300.166
2935.81	329.927
2934.55	296.089
2933.29	379.486
2932.03	270.163
2930.77	331.688
2929.52	325.674
2928.26	315.691
2927	349.384
2925.74	335.431
2924.48	309.576
2923.22	376.983
2921.96	366.999
2920.7	301.483
2919.44	333.161
2918.18	319.225
2916.91	388.555
2915.65	313.169
2914.39	293.298
2913.13	342.783
2911.87	336.781
2910.61	269.379
2909.34	320.823
2908.08	397.99
2906.82	352.389
2905.56	342.431
2904.29	290.918
2903.03	300.762
2901.76	358.082
2900.5	332.307
2899.24	265.009
2897.97	357.898
2896.71	304.458
2895.44	379.519
2894.18	343.88
2892.91	304.302
2891.65	298.323
2890.38	327.901
2889.12	333.77
2887.85	349.51
2886.58	339.578
2885.32	286.224
2884.05	327.62
2882.78	345.324
2881.52	280.158
2880.25	355.068
2878.98	339.229
2877.71	335.227
2876.45	376.573
2875.18	307.515
2873.91	360.677
2872.64	317.262
2871.37	295.535
2870.1	319.124
2868.83	344.673
2867.56	291.445
2866.29	324.866
2865.02	299.219
2863.75	368.055
2862.48	320.763
2861.21	328.578
2859.94	322.62
2858.67	300.93
2857.4	350.041
2856.13	312.623
2854.86	310.604
2853.58	332.171
2852.31	320.323
2851.04	318.303
2849.77	326.107
2848.49	296.588
2847.22	351.524
2845.95	343.61
2844.67	345.514
2843.4	314.05
2842.13	370.908
2840.85	337.488
2839.58	296.232
2838.3	262.836
2837.03	321.625
2835.75	325.491
2834.48	303.87
2833.2	311.659
2831.93	317.484
2830.65	309.592
2829.38	321.293
2828.1	346.702
2826.82	325.1
2825.55	317.212
2824.27	299.537
2822.99	275.997
2821.71	256.378
2820.44	316.994
2819.16	297.375
2817.88	246.466
2816.6	279.671
2815.32	351.973
2814.05	312.811
2812.77	340.123
2811.49	351.791
2810.21	334.144
2808.93	318.457
2807.65	298.868
2806.37	294.911
2805.09	320.245
2803.81	339.714
2802.53	298.663
2801.25	267.384
2799.97	357.101
2798.68	329.725
2797.4	304.309
2796.12	267.2
2794.84	265.204
2793.56	300.253
2792.27	309.948
2790.99	374.212
2789.71	362.456
2788.42	329.271
2787.14	286.358
2785.86	331.106
2784.57	301.838
2783.29	295.945
2782.01	307.574
2780.72	301.682
2779.44	311.36
2778.15	328.818
2776.87	303.472
2775.58	262.575
2774.3	264.474
2773.01	355.812
2771.72	330.479
2770.44	301.267
2769.15	301.215
2767.86	336.137
2766.58	316.652
2765.29	361.271
2764	332.079
2762.72	285.422
2761.43	343.612
2760.14	326.084
2758.85	366.781
2757.56	314.33
2756.27	314.276
2754.99	314.221
2753.7	269.563
2752.41	345.137
2751.12	331.507
2749.83	350.832
2748.54	335.268
2747.25	304.208
2745.96	401.021
2744.67	292.481
2743.38	317.607
2742.08	520.863
2740.79	387.192
2739.5	330.992
2738.21	325.129
2736.92	357.967
2735.63	346.298
2734.33	348.172
2733.04	328.772
2731.75	299.711
2730.45	313.193
2729.16	357.596
2727.87	374.928
2726.57	359.405
2725.28	376.731
2723.99	347.691
2722.69	407.501
2721.4	403.569
2720.1	372.609
2718.81	411.15
2717.51	351.251
2716.21	411.008
2714.92	453.381
2713.62	430.156
2712.33	513.012
2711.03	480.142
2709.73	530.186
2708.44	568.647
2707.14	553.13
2705.84	564.596
2704.54	581.838
2703.25	599.074
2701.95	552.748
2700.65	621.974
2699.35	515.976
2698.05	617.909
2696.75	600.481
2695.45	590.755
2694.16	619.512
2692.86	559.773
2691.56	596.218
2690.26	576.886
2688.96	572.941
2687.66	618.976
2686.35	565.055
2685.05	484.249
2683.75	514.905
2682.45	484.081
2681.15	520.489
2679.85	549.203
2678.55	479.99
2677.24	445.353
2675.94	422.245
2674.64	389.549
2673.33	326.167
2672.03	404.761
2670.73	402.772
2669.42	423.797
2668.12	350.866
2666.82	364.224
2665.51	377.577
2664.21	354.516
2662.9	346.791
2661.6	404.2
2660.29	419.452
2658.99	402.145
2657.68	369.526
2656.37	333.09
2655.07	340.688
2653.76	317.665
2652.46	302.304
2651.15	365.38
2649.84	319.413
2648.53	346.13
2647.23	313.566
2645.92	288.66
2644.61	344.039
2643.3	365
2641.99	271.314
2640.69	319.025
2639.38	326.61
2638.07	313.185
2636.76	313.131
2635.45	276.806
2634.14	341.653
2632.83	341.593
2631.52	293.834
2630.21	257.537
2628.9	257.492
2627.59	331.821
2626.28	303.163
2624.96	327.893
2623.65	272.561
2622.34	251.551
2621.03	238.17
2619.72	268.609
2618.4	323.799
2617.09	329.456
2615.78	277.99
2614.46	295.075
2613.15	291.217
2611.84	277.845
2610.52	287.31
2609.21	296.772
2607.89	304.329
2606.58	277.652
2605.27	214.857
2603.95	315.576
2602.63	290.812
2601.32	305.965
2600	328.712
2598.69	286.861
2597.37	250.722
2596.06	258.275
2594.74	311.395
2593.42	290.458
2592.1	286.612
2590.79	296.05
2589.47	301.691
2588.15	271.285
2586.83	316.76
2585.52	257.916
2584.2	322.339
2582.88	301.429
2581.56	310.854
2580.24	310.8
2578.92	274.744
2577.6	272.802
2576.28	310.637
2574.96	337.096
2573.64	263.192
2572.32	283.971
2571	295.279
2569.68	317.937
2568.36	283.823
2567.04	281.882
2565.71	255.352
2564.39	255.307
2563.07	294.97
2561.75	296.809
2560.42	257.064
2559.1	311.825
2557.78	241.858
2556.46	275.821
2555.13	305.995
2553.81	330.493
2552.48	304
2551.16	262.414
2549.84	326.545
2548.51	286.856
2547.19	252.842
2545.86	281.097
2544.54	248.982
2543.21	333.804
2541.88	290.377
2540.56	258.278
2539.23	241.269
2537.9	299.648
2536.58	263.795
2535.25	212.883
2533.92	226.031
2532.6	278.724
2531.27	297.504
2529.94	291.805
2528.61	319.988
2527.28	333.106
2525.96	282.244
2524.63	301.007
2523.3	261.455
2521.97	282.096
2520.64	274.525
2519.31	308.317
2517.98	308.263
2516.65	259.347
2515.32	279.971
2513.99	251.742
2512.66	323.075
2511.33	246.02
2509.99	307.941
2508.66	296.623
2507.33	260.907
2506	262.738
2504.67	255.187
2503.33	213.869
2502	313.245
2500.67	305.689
2499.33	335.636
2498	277.461
2496.67	241.799
2495.33	329.838
2494	264.199
2492.66	310.989
2491.33	265.98
2489.99	284.661
2488.66	271.504
2487.32	271.457
2485.99	299.486
2484.65	282.591
2483.32	348.031
2481.98	228.238
2480.64	286.183
2479.31	273.042
2477.97	209.42
2476.63	256.121
2475.29	312.151
2473.96	267.245
2472.62	261.592
2471.28	248.469
2469.94	250.293
2468.6	231.574
2467.26	252.073
2465.93	253.896
2464.59	322.914
2463.25	315.392
2461.91	278.019
2460.57	298.492
2459.23	264.865
2457.89	294.657
2456.55	268.502
2455.2	212.526
2453.86	227.401
2452.52	191.952
2451.18	258.997
2449.84	257.089
2448.5	266.357
2447.15	314.73
2445.81	240.196
2444.47	253.185
2443.12	251.28
2441.78	214.015
2440.44	273.52
2439.09	254.868
2437.75	321.784
2436.41	264.077
2435.06	241.718
2433.72	321.615
2432.37	280.667
2431.03	275.042
2429.68	219.252
2428.33	247.08
2426.99	245.179
2425.64	284.135
2424.3	317.507
2422.95	310.025
2421.6	295.122
2420.26	239.397
2418.91	265.331
2417.56	244.878
2416.21	280.077
2414.86	257.774
2413.52	257.728
2412.17	265.098
2410.82	279.88
2409.47	259.446
2408.12	279.782
2406.77	351.981
2405.42	296.353
2404.07	312.968
2402.72	288.843
2401.37	299.9
2400.02	316.505
2398.67	272.036
2397.32	296.041
2395.97	299.689
2394.61	325.531
2393.26	275.543
2391.91	288.437
2390.56	301.327
2389.21	275.398
2387.85	280.893
2386.5	245.739
2385.15	301.115
2383.79	295.521
2382.44	319.476
2381.09	299.11
2379.73	280.597
2378.38	239.942
2377.02	300.798
2375.67	261.999
2374.31	256.418
2372.96	289.573
2371.6	237.887
2370.24	282.096
2368.89	296.794
2367.53	311.486
2366.18	250.619
2364.82	239.521
2363.46	280.006
2362.1	265.222
2360.75	268.858
2359.39	266.97
2358.03	289.013
2356.67	252.151
2355.31	288.911
2353.95	305.419
2352.6	242.821
2351.24	246.456
2349.88	294.224
2348.52	301.527
2347.16	272.062
2345.8	268.338
2344.44	275.641
2343.08	264.569
2341.72	273.707
2340.35	238.763
2338.99	229.539
2337.63	223.991
2336.27	245.979
2334.91	223.912
2333.54	286.263
2332.18	280.708
2330.82	306.34
2329.46	264.103
2328.09	295.23
2326.73	276.844
2325.36	287.793
2324	293.241
2322.64	269.367
2321.27	274.816
2319.91	278.431
2318.54	212.45
2317.18	267.346
2315.81	259.976
2314.45	228.812
2313.08	281.846
2311.71	258.009
2310.35	296.383
2308.98	270.722
2307.61	285.305
2306.25	266.969
2304.88	276.063
2303.51	219.349
2302.14	243.069
2300.77	286.881
2299.41	257.599
2298.04	319.659
2296.67	321.428
2295.3	239.203
2293.93	235.509
2292.56	198.961
2291.19	259.151
2289.82	291.95
2288.45	301.02
2287.08	262.662
2285.71	286.324
2284.34	278.98
2282.97	264.346
2281.6	308.045
2280.22	255.14
2278.85	262.384
2277.48	287.842
2276.11	249.541
2274.73	280.456
2273.36	289.511
2271.99	278.536
2270.61	258.465
2269.24	263.879
2267.87	260.193
2266.49	291.074
2265.12	230.999
2263.74	298.245
2262.37	274.555
2260.99	267.235
2259.62	256.282
2258.24	254.419
2256.87	241.656
2255.49	239.796
2254.11	279.713
2252.74	272.399
2251.36	290.508
2249.98	295.903
2248.61	259.55
2247.23	299.427
2245.85	261.272
2244.47	237.643
2243.09	214.022
2241.71	275.641
2240.34	302.789
2238.96	271.918
2237.58	242.87
2236.2	255.512
2234.82	282.644
2233.44	264.479
2232.06	222.775
2230.68	282.494
2229.3	228.128
2227.92	287.824
2226.53	284.154
2225.15	246.102
2223.77	278.625
2222.39	265.913
2221.01	278.526
2219.62	253.161
2218.24	229.612
2216.86	265.725
2215.47	263.87
2214.09	267.438
2212.71	258.357
2211.32	272.762
2209.94	292.58
2208.55	296.14
2207.17	259.979
2205.78	238.272
2204.4	274.325
2203.01	241.796
2201.63	277.836
2200.24	294.021
2198.86	221.829
2197.47	218.183
2196.08	263.216
2194.7	317.245
2193.31	252.309
2191.92	246.859
2190.53	252.22
2189.15	277.392
2187.76	253.931
2186.37	259.288
2184.98	268.243
2183.59	228.596
2182.2	244.752
2180.81	302.288
2179.42	244.666
2178.03	303.979
2176.64	260.764
2175.25	284.092
2173.86	275.053
2172.47	260.625
2171.08	210.26
2169.69	262.329
2168.3	258.69
2166.91	231.702
2165.51	263.985
2164.12	265.734
2162.73	220.807
2161.34	249.486
2159.94	254.825
2158.55	222.484
2157.16	258.322
2155.76	295.941
2154.37	283.336
2152.97	279.7
2151.58	243.797
2150.18	252.715
2148.79	218.623
2147.39	240.084
2146	157.639
2144.6	232.834
2143.21	232.793
2141.81	236.332
2140.41	250.611
2139.02	246.987
2137.62	264.837
2136.22	227.218
2134.82	268.32
2133.43	241.445
2132.03	216.368
2130.63	239.572
2129.23	241.316
2127.83	282.379
2126.43	273.395
2125.03	257.267
2123.63	237.572
2122.23	242.888
2120.83	244.63
2119.43	237.445
2118.03	237.403
2116.63	299.824
2115.23	235.534
2113.83	240.844
2112.43	233.666
2111.03	269.293
2109.63	231.8
2108.22	254.934
2106.82	228.152
2105.42	220.983
2104.01	260.144
2102.61	219.123
2101.21	208.397
2099.8	284.936
2098.4	247.494
2097	274.153
2095.59	231.387
2094.19	300.749
2092.78	256.214
2091.38	289.968
2089.97	252.565
2088.56	254.299
2087.16	268.477
2085.75	218.654
2084.34	255.94
2082.94	213.245
2081.53	248.742
2080.12	243.368
2078.72	227.34
2077.31	250.384
2075.9	252.115
2074.49	284.023
2073.08	212.979
2071.67	269.725
2070.27	230.645
2068.86	269.629
2067.45	287.316
2066.04	264.213
2064.63	248.209
2063.22	246.392
2061.81	225.081
2060.39	230.357
2058.98	226.772
2057.57	198.39
2056.16	240.859
2054.75	223.109
2053.34	242.543
2051.92	235.42
2050.51	274.312
2049.1	238.875
2047.69	249.447
2046.27	244.096
2044.86	231.672
2043.44	196.268
2042.03	275.786
2040.62	229.781
2039.2	247.412
2037.79	263.27
2036.37	272.056
2034.96	217.252
2033.54	236.639
2032.12	287.8
2030.71	247.146
2029.29	259.457
2027.88	222.352
2026.46	269.951
2025.04	227.565
2023.62	245.162
2022.21	285.677
2020.79	241.548
2019.37	222.113
2017.95	236.174
2016.53	211.461
2015.11	207.899
2013.69	251.901
2012.28	262.423
2010.86	274.702
2009.44	218.314
2008.02	228.837
2006.59	271.035
2005.17	232.274
2003.75	214.639
2002.33	284.961
2000.91	242.701
1999.49	233.866
1998.07	249.647
1996.64	246.086
1995.22	198.591
1993.8	268.841
1992.38	265.279
1990.95	214.293
1989.53	221.279
1988.11	291.474
1986.68	249.289
1985.26	247.489
1983.83	257.974
1982.41	252.664
1980.98	228.058
1979.56	245.557
1978.13	254.281
1976.71	203.389
1975.28	250.684
1973.85	268.166
1972.43	236.575
1971	261.062
1969.57	204.958
1968.15	222.436
1966.72	257.419
1965.29	260.874
1963.86	248.574
1962.43	238.028
1961	241.485
1959.58	253.689
1958.15	248.395
1956.72	253.598
1955.29	201.093
1953.86	248.262
1952.43	235.981
1951	242.929
1949.57	251.623
1948.13	235.854
1946.7	277.733
1945.27	241.008
1943.84	263.665
1942.41	190.293
1940.98	232.151
1939.54	260.032
1938.11	211.129
1936.68	209.347
1935.24	195.355
1933.81	214.503
1932.38	233.644
1930.94	263.238
1929.51	216.13
1928.07	228.29
1926.64	289.232
1925.2	229.95
1923.77	242.101
1922.33	235.092
1920.9	250.719
1919.46	222.821
1918.03	248.889
1916.59	227.962
1915.15	229.661
1913.71	217.443
1912.28	233.056
1910.84	264.315
1909.4	217.325
1907.96	245.099
1906.52	205.081
1905.09	224.158
1903.65	194.583
1902.21	206.707
1900.77	237.931
1899.33	250.043
1897.89	192.707
1896.45	197.879
1895.01	218.669
1893.57	237.717
1892.13	201.242
1890.68	216.817
1889.24	235.854
1887.8	247.949
1886.36	253.105
1884.92	254.793
1883.47	218.354
1882.03	247.77
1880.59	228.67
1879.14	237.289
1877.7	197.416
1876.26	277.026
1874.81	225.043
1873.37	218.079
1871.92	228.422
1870.48	197.238
1869.03	256.018
1867.59	236.947
1866.14	262.842
1864.7	221.301
1863.25	212.618
1861.8	245.417
1860.36	245.373
1858.91	214.231
1857.46	191.736
1856.02	252.148
1854.57	238.289
1853.12	253.783
1851.67	212.311
1850.22	215.724
1848.77	245.019
1847.32	193.219
1845.87	248.38
1844.43	206.946
1842.98	229.324
1841.53	237.902
1840.07	239.582
1838.62	232.646
1837.17	199.867
1835.72	230.839
1834.27	179.126
1832.82	216.979
1831.37	196.279
1829.91	196.244
1828.46	227.188
1827.01	240.914
1825.56	259.796
1824.1	252.868
1822.65	266.581
1821.19	232.142
1819.74	237.258
1818.29	226.901
1816.83	240.609
1815.38	218.227
1813.92	242.24
1812.47	202.689
1811.01	262.761
1809.55	247.26
1808.1	190.562
1806.64	205.975
1805.19	240.261
1803.73	248.797
1802.27	212.726
1800.81	233.27
1799.36	233.228
1797.9	222.898
1796.44	219.429
1794.98	209.105
1793.52	200.499
1792.06	217.596
1790.6	210.705
1789.14	202.103
1787.68	244.877
1786.22	253.393
1784.76	253.347
1783.3	177.995
1781.84	225.876
1780.38	234.39
1778.92	254.874
1777.46	220.623
1775.99	253.072
1774.53	208.575
1773.07	227.34
1771.61	232.426
1770.14	237.51
1768.68	186.215
1767.22	208.387
1765.75	244.212
1764.29	233.923
1762.82	232.173
1761.36	209.942
1759.89	225.263
1758.43	201.335
1756.96	194.475
1755.5	206.379
1754.03	182.467
1752.57	211.419
1751.1	252.293
1749.63	230.09
1748.17	163.59
1746.7	226.599
1745.23	246.999
1743.76	207.782
1742.29	245.207
1740.83	211.112
1739.36	214.478
1737.89	246.775
1736.42	187.175
1734.95	222.868
1733.48	255.146
1732.01	195.576
1730.54	231.248
1729.07	224.406
1727.6	251.561
1726.13	278.706
1724.66	200.496
1723.18	232.737
1721.71	246.283
1720.24	232.652
1718.77	261.474
1717.3	234.265
1715.82	222.342
1714.35	215.514
1712.88	223.958
1711.4	208.65
1709.93	225.572
1708.45	203.487
1706.98	237.358
1705.5	252.571
1704.03	227.103
1702.55	216.895
1701.08	247.351
1699.6	226.979
1698.13	242.18
1696.65	252.295
1695.17	198.075
1693.7	228.507
1692.22	218.311
1690.74	203.043
1689.26	218.232
1687.79	240.18
1686.31	248.592
1684.83	182.606
1683.35	265.406
1681.87	245.076
1680.39	238.272
1678.91	251.745
1677.43	255.078
1675.95	280.365
1674.47	222.901
1672.99	216.107
1671.51	222.819
1670.03	268.347
1668.55	239.612
1667.06	226.072
1665.58	263.14
1664.1	249.6
1662.62	247.869
1661.13	234.336
1659.65	214.067
1658.17	210.657
1656.68	283.072
1655.2	266.174
1653.72	210.542
1652.23	245.868
1650.75	212.149
1649.26	225.578
1647.78	220.487
1646.29	274.297
1644.8	250.692
1643.32	228.778
1641.83	230.418
1640.34	257.281
1638.86	240.421
1637.37	279.039
1635.88	240.334
1634.4	252.052
1632.91	253.686
1631.42	248.601
1629.93	203.211
1628.44	240.114
1626.95	271.968
1625.46	234.991
1623.97	253.408
1622.48	241.617
1620.99	313.709
1619.5	231.465
1618.01	239.807
1616.52	266.59
1615.03	251.454
1613.54	268.169
1612.05	209.469
1610.55	254.668
1609.06	296.499
1607.57	318.218
1606.08	277.971
1604.58	296.337
1603.09	286.239
1601.6	331.374
1600.1	384.859
1598.61	383.116
1597.11	401.446
1595.62	389.666
1594.12	402.971
1592.63	419.615
1591.13	421.21
1589.64	342.588
1588.14	300.754
1586.64	322.416
1585.15	290.622
1583.65	342.337
1582.15	275.489
1580.65	308.826
1579.16	277.058
1577.66	280.344
1576.16	255.267
1574.66	271.901
1573.16	335.228
1571.66	283.474
1570.16	238.408
1568.66	343.378
1567.16	296.651
1565.66	293.264
1564.16	273.219
1562.66	278.166
1561.16	279.78
1559.66	266.409
1558.16	258.036
1556.65	248.002
1555.15	227.987
1553.65	271.205
1552.15	264.501
1550.64	254.473
1549.14	231.146
1547.64	246.067
1546.13	224.412
1544.63	249.301
1543.12	245.932
1541.62	242.564
1540.11	270.758
1538.61	247.457
1537.1	260.696
1535.6	215.823
1534.09	222.423
1532.59	212.425
1531.08	260.504
1529.57	233.913
1528.06	255.433
1526.56	262.019
1525.05	227.152
1523.54	261.923
1522.03	268.505
1520.52	251.884
1519.01	183.908
1517.51	226.944
1516	253.402
1514.49	233.484
1512.98	220.197
1511.47	235.054
1509.96	264.801
1508.44	282.954
1506.93	248.16
1505.42	264.655
1503.91	239.8
1502.4	243.063
1500.89	241.365
1499.37	241.32
1497.86	229.708
1496.35	229.666
1494.83	251.099
1493.32	221.323
1491.81	198.163
1490.29	239.403
1488.78	217.9
1487.26	194.753
1485.75	201.318
1484.23	206.23
1482.72	221.038
1481.2	192.961
1479.69	207.766
1478.17	245.646
1476.65	271.974
1475.14	220.835
1473.62	232.329
1472.1	230.638
1470.58	248.714
1469.07	253.609
1467.55	200.874
1466.03	225.53
1464.51	164.59
1462.99	246.84
1461.47	222.115
1459.95	236.879
1458.43	228.612
1456.91	241.725
1455.39	267.986
1453.87	202.185
1452.35	179.139
1450.83	231.688
1449.3	220.145
1447.78	208.607
1446.26	233.202
1444.74	261.073
1443.21	249.533
1441.69	226.508
1440.17	224.825
1438.64	260.88
1437.12	221.461
1435.6	224.701
1434.07	209.901
1432.55	204.944
1431.02	226.216
1429.5	231.091
1427.97	213.023
1426.45	211.346
1424.92	214.583
1423.39	226.007
1421.87	203.042
1420.34	211.19
1418.81	191.509
1417.28	242.206
1415.76	227.435
1414.23	247.024
1412.7	230.623
1411.17	184.791
1409.64	223.997
1408.11	232.13
1406.58	210.84
1405.05	209.166
1403.52	230.367
1401.99	186.22
1400.46	210.684
1398.93	238.404
1397.4	220.402
1395.87	195.876
1394.34	246.432
1392.8	234.965
1391.27	226.765
1389.74	234.878
1388.21	244.62
1386.67	221.747
1385.14	241.269
1383.6	195.587
1382.07	195.551
1380.54	257.428
1379	229.688
1377.47	216.616
1375.93	236.116
1374.4	219.792
1372.86	216.496
1371.32	200.181
1369.79	239.196
1368.25	250.54
1366.71	263.506
1365.18	203.285
1363.64	185.362
1362.1	238.975
1360.56	243.807
1359.02	208.01
1357.49	217.72
1355.95	246.921
1354.41	258.244
1352.87	230.59
1351.33	256.525
1349.79	219.142
1348.25	215.856
1346.71	249.892
1345.17	215.776
1343.62	228.712
1342.08	194.613
1340.54	217.277
1339	192.92
1337.46	246.373
1335.91	183.125
1334.37	231.699
1332.83	208.976
1331.28	226.754
1329.74	220.235
1328.2	202.384
1326.65	191.015
1325.11	202.309
1323.56	202.272
1322.02	215.177
1320.47	247.489
1318.93	228.035
1317.38	211.823
1315.83	210.167
1314.29	245.689
1312.74	198.777
1311.19	185.814
1309.65	213.243
1308.1	198.666
1306.55	247.076
1305	222.811
1303.45	208.242
1301.9	193.677
1300.35	185.573
1298.8	217.806
1297.25	212.926
1295.7	225.789
1294.15	167.698
1292.6	198.298
1291.05	209.545
1289.5	186.944
1287.95	199.799
1286.4	191.707
1284.85	182.007
1283.29	241.558
1281.74	193.21
1280.19	207.663
1278.63	175.434
1277.08	183.448
1275.53	202.72
1273.97	197.857
1272.42	207.47
1270.86	184.919
1269.31	170.416
1267.75	180.028
1266.2	194.459
1264.64	205.67
1263.09	216.878
1261.53	181.501
1259.97	168.62
1258.42	195.884
1256.86	211.9
1255.3	197.416
1253.74	160.471
1252.18	203.76
1250.63	158.807
1249.07	219.723
1247.51	211.664
1245.95	208.418
1244.39	190.747
1242.83	206.738
1241.27	177.858
1239.71	185.835
1238.15	213.03
1236.59	184.164
1235.02	164.917
1233.46	211.31
1231.9	220.874
1230.34	212.832
1228.78	204.792
1227.21	204.754
1225.65	185.524
1224.09	182.291
1222.52	174.264
1220.96	195.011
1219.39	201.367
1217.83	186.949
1216.27	196.5
1214.7	169.31
1213.13	225.172
1211.57	196.39
1210	212.317
1208.44	175.568
1206.87	188.301
1205.3	201.03
1203.74	215.349
1202.17	208.929
1200.6	194.539
1199.03	199.286
1197.46	186.497
1195.9	200.805
1194.33	175.273
1192.76	176.834
1191.19	186.358
1189.62	187.915
1188.05	202.21
1186.48	175.11
1184.91	176.669
1183.34	168.679
1181.76	186.149
1180.19	187.705
1178.62	197.213
1177.05	197.176
1175.48	217.807
1173.9	173.259
1172.33	189.119
1170.76	192.262
1169.18	136.623
1167.61	158.835
1166.03	176.274
1164.46	179.416
1162.88	182.558
1161.31	207.918
1159.73	201.532
1158.16	212.6
1156.58	155.455
1155.01	176.043
1153.43	191.867
1151.85	156.953
1150.28	198.136
1148.7	207.607
1147.12	152.111
1145.54	180.598
1143.96	175.813
1142.39	186.865
1140.81	197.914
1139.23	182.046
1137.65	208.919
1136.07	161.407
1134.49	205.676
1132.91	202.474
1131.33	145.501
1129.75	156.542
1128.16	173.904
1126.58	192.839
1125	115.366
1123.42	178.546
1121.84	181.672
1120.25	132.675
1118.67	205.292
1117.09	176.834
1115.5	178.379
1113.92	194.128
1112.33	187.78
1110.75	216.143
1109.16	192.442
1107.58	249.182
1105.99	151.373
1104.41	170.263
1102.82	163.926
1101.24	170.199
1099.65	171.743
1098.06	166.985
1096.47	165.378
1094.89	165.347
1093.3	149.572
1091.71	199.917
1090.12	166.828
1088.53	188.827
1086.94	190.365
1085.36	139.994
1083.77	172.994
1082.18	169.817
1080.59	194.938
1079	180.755
1077.4	183.865
1075.81	142.979
1074.22	152.378
1072.63	152.349
1071.04	168.024
1069.45	164.852
1067.85	144.415
1066.26	149.096
1064.67	167.897
1063.07	149.04
1061.48	183.52
1059.89	177.212
1058.29	142.684
1056.7	172.443
1055.1	167.708
1053.51	162.976
1051.91	177.046
1050.31	181.712
1048.72	187.943
1047.12	183.21
1045.52	194.135
1043.93	161.227
1042.33	178.412
1040.73	178.378
1039.13	156.443
1037.54	157.977
1035.94	220.501
1034.34	197.007
1032.74	217.292
1031.14	181.303
1029.54	160.954
1027.94	235.918
1026.34	156.208
1024.74	168.673
1023.14	188.94
1021.54	170.17
1019.93	213.844
1018.33	166.985
1016.73	177.876
1015.13	193.443
1013.53	204.324
1011.92	188.692
1010.32	199.57
1008.71	194.856
1007.11	199.495
1005.51	202.574
1003.9	199.42
1002.3	227.42
1000.69	202.46
999.086	213.321
