2999.69	234.532
2998.44	182.414
2997.19	250.525
2995.94	226.436
2994.7	216.38
2993.45	220.35
2992.2	216.307
2990.95	240.3
2989.7	210.226
2988.45	190.172
2987.2	220.162
2985.96	232.131
2984.71	222.088
2983.46	174.039
2982.21	236.013
2980.96	273.968
2979.71	175.95
2978.45	247.887
2977.2	195.877
2975.95	191.847
2974.7	241.766
2973.45	169.806
2972.2	239.686
2970.95	209.689
2969.69	181.7
2968.44	187.658
2967.19	255.49
2965.94	217.529
2964.68	201.529
2963.43	233.415
2962.18	261.3
2960.92	219.375
2959.67	207.373
2958.42	195.376
2957.16	165.443
2955.91	247.126
2954.65	211.217
2953.4	229.112
2952.14	169.314
2950.89	199.159
2949.63	201.117
2948.38	213.028
2947.12	220.954
2945.86	173.15
2944.61	222.868
2943.35	232.778
2942.1	230.749
2940.84	188.943
2939.58	234.647
2938.32	222.678
2937.07	218.664
2935.81	210.677
2934.55	204.679
2933.29	198.684
2932.03	156.933
2930.77	190.671
2929.52	226.383
2928.26	198.548
2927	192.558
2925.74	224.282
2924.48	267.902
2923.22	230.158
2921.96	228.135
2920.7	239.996
2919.44	234.006
2918.18	188.362
2916.91	208.154
2915.65	241.814
2914.39	196.193
2913.13	251.639
2911.87	251.595
2910.61	261.456
2909.34	241.607
2908.08	249.486
2906.82	190.052
2905.56	193.978
2904.29	225.61
2903.03	197.869
2901.76	170.139
2900.5	217.582
2899.24	211.612
2897.97	231.349
2896.71	185.838
2895.44	233.246
2894.18	233.206
2892.91	195.623
2891.65	177.808
2890.38	227.16
2889.12	231.072
2887.85	240.905
2886.58	227.044
2885.32	205.291
2884.05	228.94
2882.78	209.168
2881.52	242.672
2880.25	222.904
2878.98	205.115
2877.71	224.8
2876.45	173.5
2875.18	206.981
2873.91	183.295
2872.64	269.969
2871.37	155.649
2870.1	210.779
2868.83	200.895
2867.56	212.676
2866.29	157.511
2865.02	228.352
2863.75	192.885
2862.48	263.695
2861.21	220.364
2859.94	155.409
2858.67	194.719
2857.4	192.719
2856.13	222.179
2854.86	180.858
2853.58	257.482
2852.31	239.751
2851.04	176.835
2849.77	216.095
2848.49	178.739
2847.22	231.731
2845.95	225.801
2844.67	225.762
2843.4	194.318
2842.13	223.722
2840.85	247.229
2839.58	245.225
2838.3	227.53
2837.03	192.19
2835.75	235.295
2834.48	250.938
2833.2	168.57
2831.93	184.219
2830.65	221.417
2829.38	221.379
2828.1	188.042
2826.82	191.926
2825.55	178.187
2824.27	170.325
2822.99	209.444
2821.71	193.752
2820.44	187.848
2819.16	176.077
2817.88	217.125
2816.6	220.999
2815.32	265.935
2814.05	209.192
2812.77	244.342
2811.49	216.938
2810.21	226.671
2808.93	187.558
2807.65	218.779
2806.37	242.178
2805.09	205.035
2803.81	191.333
2802.53	224.485
2801.25	234.205
2799.97	273.192
2798.68	156.083
2797.4	218.478
2796.12	210.639
2794.84	224.253
2793.56	181.321
2792.27	183.24
2790.99	206.596
2789.71	235.791
2788.42	239.647
2787.14	198.698
2785.86	227.879
2784.57	223.945
2783.29	214.171
2782.01	212.187
2780.72	175.17
2779.44	216.006
2778.15	182.893
2776.87	225.659
2775.58	250.905
2774.3	200.3
2773.01	225.542
2771.72	258.551
2770.44	227.408
2769.15	182.672
2767.86	221.5
2766.58	229.233
2765.29	262.213
2764	221.386
2762.72	219.406
2761.43	238.781
2760.14	240.681
2758.85	213.471
2757.56	180.449
2756.27	213.397
2754.99	201.722
2753.7	226.899
2752.41	222.981
2751.12	219.066
2749.83	226.781
2748.54	238.37
2747.25	265.456
2745.96	247.974
2744.67	263.427
2743.38	234.332
2742.08	209.12
2740.79	207.148
2739.5	247.76
2738.21	247.717
2736.92	247.675
2735.63	276.651
2734.33	264.998
2733.04	224.339
2731.75	280.375
2730.45	214.595
2729.16	197.161
2727.87	303.421
2726.57	266.655
2725.28	322.636
2723.99	295.538
2722.69	332.181
2721.4	322.469
2720.1	287.662
2718.81	374.475
2717.51	353.181
2716.21	362.768
2714.92	364.634
2713.62	410.866
2712.33	468.654
2711.03	449.29
2709.73	468.492
2708.44	501.18
2707.14	570.476
2705.84	558.815
2704.54	630.003
2703.25	595.221
2701.95	587.415
2700.65	700.924
2699.35	625.717
2698.05	637.159
2696.75	710.184
2695.45	698.515
2694.16	700.318
2692.86	732.899
2691.56	727.002
2690.26	719.184
2688.96	661.381
2687.66	726.624
2686.35	747.64
2685.05	651.43
2683.75	612.891
2682.45	591.654
2681.15	624.203
2679.85	508.877
2678.55	604.787
2677.24	495.263
2675.94	504.774
2674.64	489.335
2673.33	427.854
2672.03	439.29
2670.73	433.46
2669.42	368.185
2668.12	341.279
2666.82	360.39
2665.51	325.828
2664.21	302.776
2662.9	331.463
2661.6	316.08
2660.29	277.719
2658.99	270.011
2657.68	329.319
2656.37	260.346
2655.07	289.011
2653.76	200.933
2652.46	285.084
2651.15	292.686
2649.84	174.051
2648.53	174.021
2647.23	275.326
2645.92	227.487
2644.61	189.221
2643.3	275.183
2641.99	200.62
2640.69	221.598
2639.38	252.12
2638.07	208.154
2636.76	223.392
2635.45	211.9
2634.14	259.58
2632.83	221.368
2631.52	225.145
2630.21	259.444
2628.9	209.808
2627.59	177.353
2626.28	181.135
2624.96	192.542
2623.65	223.005
2622.34	181.041
2621.03	169.577
2619.72	171.453
2618.4	190.47
2617.09	167.585
2615.78	232.293
2614.46	205.6
2613.15	175.111
2611.84	241.687
2610.52	188.369
2609.21	205.458
2607.89	146.458
2606.58	173.057
2605.27	226.266
2603.95	212.919
2602.63	152.059
2601.32	186.239
2600	171.006
2598.69	229.869
2597.37	186.142
2596.06	235.486
2594.74	174.685
2593.42	186.045
2592.1	208.79
2590.79	172.696
2589.47	244.768
2588.15	218.166
2586.83	225.716
2585.52	206.712
2584.2	185.819
2582.88	216.119
2581.56	199.022
2580.24	191.407
2578.92	161.057
2577.6	200.813
2576.28	185.625
2574.96	179.911
2573.64	185.56
2572.32	208.245
2571	151.425
2569.68	174.108
2568.36	202.46
2567.04	164.589
2565.71	185.366
2564.39	162.64
2563.07	173.957
2561.75	217.408
2560.42	190.908
2559.1	177.646
2557.78	219.184
2556.46	226.702
2555.13	177.553
2553.81	188.853
2552.48	118.957
2551.16	192.563
2549.84	158.554
2548.51	186.834
2547.19	171.706
2545.86	149.038
2544.54	179.191
2543.21	158.415
2541.88	156.502
2540.56	203.606
2539.23	201.685
2537.9	182.804
2536.58	165.814
2535.25	184.625
2533.92	195.894
2532.6	209.043
2531.27	154.401
2529.94	175.083
2528.61	207.051
2527.28	173.14
2525.96	182.518
2524.63	148.622
2523.3	195.621
2521.97	156.093
2520.64	195.552
2519.31	171.078
2517.98	195.484
2516.65	182.295
2515.32	214.206
2513.99	199.139
2512.66	184.078
2511.33	210.338
2509.99	176.502
2508.66	185.858
2507.33	193.334
2506	167.026
2504.67	195.143
2503.33	151.96
2502	195.075
2500.67	196.916
2499.33	208.132
2498	181.849
2496.67	200.562
2495.33	187.408
2494	172.385
2492.66	191.089
2491.33	213.533
2489.99	219.114
2488.66	168.52
2487.32	185.339
2485.99	181.563
2484.65	175.917
2483.32	188.984
2481.98	164.631
2480.64	183.307
2479.31	179.535
2477.97	170.154
2476.63	228.079
2475.29	147.664
2473.96	170.065
2472.62	214.879
2471.28	188.687
2469.94	168.108
2468.6	175.548
2467.26	173.65
2465.93	197.889
2464.59	156.791
2463.25	222.081
2461.91	244.433
2460.57	180.961
2459.23	197.716
2457.89	195.817
2456.55	188.324
2455.2	206.934
2453.86	165.891
2452.52	218.043
2451.18	191.919
2449.84	173.255
2448.5	204.89
2447.15	176.919
2445.81	184.336
2444.47	193.612
2443.12	204.746
2441.78	173.073
2440.44	191.65
2439.09	152.549
2437.75	163.682
2436.41	202.707
2435.06	202.672
2433.72	184.046
2432.37	182.155
2431.03	187.698
2429.68	165.368
2428.33	221.071
2426.99	165.31
2425.64	148.567
2424.3	181.963
2422.95	189.357
2421.6	178.187
2420.26	157.742
2418.91	179.98
2417.56	187.369
2416.21	170.643
2414.86	191.012
2413.52	161.312
2412.17	213.191
2410.82	218.714
2409.47	176.053
2408.12	181.58
2406.77	181.548
2405.42	196.334
2404.07	181.485
2402.72	188.859
2401.37	166.611
2400.02	181.389
2398.67	157.3
2397.32	146.17
2395.97	190.543
2394.61	181.262
2393.26	181.23
2391.91	183.047
2390.56	114.615
2389.21	190.376
2387.85	129.359
2386.5	169.985
2385.15	190.275
2383.79	125.597
2382.44	192.055
2381.09	203.1
2379.73	166.143
2378.38	208.565
2377.02	190.075
2375.67	197.422
2374.31	175.25
2372.96	169.686
2371.6	162.28
2370.24	177.001
2368.89	158.536
2367.53	204.586
2366.18	169.537
2364.82	152.925
2363.46	180.53
2362.1	132.611
2360.75	191.515
2359.39	162.023
2358.03	138.063
2356.67	165.647
2355.31	130.654
2353.95	224.465
2352.6	163.72
2351.24	180.244
2349.88	215.151
2348.52	178.342
2347.16	163.605
2345.8	218.714
2344.44	207.65
2343.08	174.542
2341.72	174.511
2340.35	110.198
2338.99	170.777
2337.63	165.239
2336.27	216.608
2334.91	194.546
2333.54	220.202
2332.18	163.288
2330.82	163.259
2329.46	168.732
2328.09	170.536
2326.73	139.339
2325.36	161.311
2324	148.453
2322.64	196.07
2321.27	179.547
2319.91	183.179
2318.54	163
2317.18	184.945
2315.81	175.758
2314.45	161.083
2313.08	139.093
2311.71	197.624
2310.35	115.26
2308.98	164.628
2307.61	168.257
2306.25	159.084
2304.88	162.713
2303.51	202.898
2302.14	160.828
2300.77	157.145
2299.41	190.002
2298.04	149.783
2296.67	206.372
2295.3	171.642
2293.93	193.519
2292.56	188.009
2291.19	120.451
2289.82	171.52
2288.45	158.72
2287.08	149.571
2285.71	176.901
2284.34	195.103
2282.97	169.546
2281.6	149.466
2280.22	193.178
2278.85	138.48
2277.48	163.961
2276.11	140.253
2274.73	171.187
2273.36	154.77
2271.99	151.101
2270.61	147.434
2269.24	176.526
2267.87	143.743
2266.49	225.582
2265.12	207.353
2263.74	172.764
2262.37	163.642
2260.99	125.437
2259.62	205.389
2258.24	145.383
2256.87	174.428
2255.49	138.065
2254.11	154.387
2252.74	179.784
2251.36	156.148
2249.98	156.12
2248.61	170.613
2247.23	177.842
2245.85	165.109
2244.47	163.266
2243.09	154.169
2241.71	212.171
2240.34	194.002
2238.96	126.895
2237.58	144.997
2236.2	148.596
2234.82	195.677
2233.44	155.789
2232.06	181.118
2230.68	166.599
2229.3	173.812
2227.92	173.781
2226.53	157.461
2225.15	171.91
2223.77	133.885
2222.39	171.849
2221.01	177.244
2219.62	200.721
2218.24	180.797
2216.86	160.881
2215.47	175.311
2214.09	155.403
2212.71	169.829
2211.32	140.897
2209.94	173.381
2208.55	139.041
2207.17	160.681
2205.78	200.365
2204.4	140.772
2203.01	137.138
2201.63	95.6188
2200.24	193.008
2198.86	135.262
2197.47	122.615
2196.08	192.905
2194.7	129.782
2193.31	153.188
2191.92	136.944
2190.53	187.363
2189.15	176.522
2187.76	174.69
2186.37	171.058
2184.98	138.622
2183.59	185.397
2182.2	154.77
2180.81	158.341
2179.42	199.69
2178.03	196.057
2176.64	161.854
2175.25	161.825
2173.86	152.807
2172.47	124.022
2171.08	190.492
2169.69	129.368
2168.3	134.734
2166.91	145.487
2165.51	100.566
2164.12	138.253
2162.73	201.06
2161.34	138.204
2159.94	139.974
2158.55	168.657
2157.16	150.688
2155.76	125.551
2154.37	164.98
2152.97	155.986
2151.58	155.959
2150.18	188.192
2148.79	129.023
2147.39	150.5
2146	179.135
2144.6	105.671
2143.21	145.048
2141.81	143.232
2140.41	161.107
2139.02	204.032
2137.62	118.103
2136.22	137.762
2134.82	182.458
2133.43	160.964
2132.03	139.477
2130.63	164.482
2129.23	196.628
2127.83	214.465
2126.43	169.755
2125.03	146.499
2123.63	155.404
2122.23	142.875
2120.83	171.42
2119.43	162.463
2118.03	126.734
2116.63	162.405
2115.23	158.807
2113.83	162.347
2112.43	140.913
2111.03	160.505
2109.63	178.308
2108.22	142.621
2106.82	158.637
2105.42	149.698
2104.01	135.417
2102.61	165.678
2101.21	169.211
2099.8	133.564
2098.4	142.443
2097	140.637
2095.59	119.253
2094.19	209.991
2092.78	163.692
2091.38	124.526
2089.97	124.504
2088.56	181.388
2087.16	184.912
2085.75	181.323
2084.34	158.185
2082.94	142.164
2081.53	184.78
2080.12	166.982
2078.72	170.505
2077.31	156.268
2075.9	221.932
2074.49	2994.66
2073.08	470.328
2071.67	177.451
2070.27	136.613
2068.86	143.684
2067.45	152.526
2066.04	154.272
2064.63	150.698
2063.22	124.082
2061.81	125.833
2060.39	157.706
2058.98	147.047
2057.57	138.165
2056.16	97.4063
2054.75	182.383
2053.34	161.106
2051.92	148.686
2050.51	127.423
2049.1	143.325
2047.69	157.452
2046.27	125.585
2044.86	129.1
2043.44	139.686
2042.03	171.482
2040.62	130.798
2039.2	134.309
2037.79	189.06
2036.37	146.627
2034.96	127.172
2033.54	162.469
2032.12	167.736
2030.71	171.237
2029.29	151.791
2027.88	116.47
2026.46	155.266
2025.04	178.171
2023.62	153.446
2022.21	118.15
2020.79	126.945
2019.37	186.857
2017.95	142.762
2016.53	146.26
2015.11	151.52
2013.69	121.546
2012.28	160.272
2010.86	146.156
2009.44	154.932
2008.02	153.144
2006.59	147.837
2005.17	119.656
2003.75	158.34
2002.33	128.408
2000.91	94.97
1999.49	200.456
1998.07	170.533
1996.64	170.503
1995.22	128.293
1993.8	138.813
1992.38	144.059
1990.95	193.215
1989.53	144.007
1988.11	117.643
1986.68	201.889
1985.26	163.237
1983.83	131.619
1982.41	168.443
1980.98	201.744
1979.56	128.041
1978.13	122.757
1976.71	140.268
1975.28	141.996
1973.85	184.036
1972.43	169.983
1971	168.201
1969.57	133.135
1968.15	141.869
1966.72	145.345
1965.29	138.316
1963.86	113.784
1962.43	119.014
1961	118.993
1959.58	157.462
1958.15	141.69
1956.72	152.159
1955.29	118.907
1953.86	115.389
1952.43	134.597
1951	122.339
1949.57	120.569
1948.13	136.271
1946.7	111.792
1945.27	153.686
1943.84	113.498
1942.41	148.394
1940.98	144.876
1939.54	143.105
1938.11	139.589
1936.68	163.988
1935.24	122.097
1933.81	155.21
1932.38	151.694
1930.94	130.748
1929.51	153.383
1928.07	162.069
1926.64	137.646
1925.2	156.784
1923.77	151.531
1922.33	113.192
1920.9	104.466
1919.46	172.338
1918.03	147.941
1916.59	133.993
1915.15	140.928
1913.71	140.903
1912.28	144.356
1910.84	126.941
1909.4	111.27
1907.96	158.184
1906.52	161.632
1905.09	128.587
1903.65	171.998
1902.21	177.178
1900.77	121.571
1899.33	201.424
1897.89	140.624
1896.45	98.9397
1895.01	135.367
1893.57	112.785
1892.13	126.644
1890.68	119.683
1889.24	147.409
1887.8	126.575
1886.36	117.885
1884.92	145.596
1883.47	110.91
1882.03	152.474
1880.59	121.264
1879.14	148.955
1877.7	148.928
1876.26	155.827
1874.81	173.11
1873.37	119.424
1871.92	143.629
1870.48	128.032
1869.03	122.819
1867.59	140.093
1866.14	119.317
1864.7	129.668
1863.25	155.574
1861.8	155.546
1860.36	152.062
1858.91	117.481
1857.46	133.006
1856.02	139.89
1854.57	150.226
1853.12	138.113
1851.67	126.006
1850.22	134.612
1848.77	101.804
1847.32	94.8844
1845.87	143.163
1844.43	172.455
1842.98	125.869
1841.53	179.288
1840.07	105.14
1838.62	156.821
1837.17	170.576
1835.72	127.478
1834.27	110.232
1832.82	144.653
1831.37	168.731
1829.91	130.829
1828.46	132.527
1827.01	147.99
1825.56	132.479
1824.1	151.377
1822.65	120.392
1821.19	115.211
1819.74	127.225
1818.29	128.921
1816.83	152.959
1815.38	149.494
1813.92	142.595
1812.47	133.981
1811.01	121.935
1809.55	139.084
1808.1	157.943
1806.64	101.271
1805.19	135.576
1803.73	140.699
1802.27	142.389
1800.81	152.654
1799.36	109.754
1797.9	147.455
1796.44	140.572
1794.98	123.406
1793.52	147.375
1792.06	114.795
1790.6	140.47
1789.14	119.891
1787.68	143.844
1786.22	101.015
1784.76	150.639
1783.3	128.362
1781.84	157.429
1780.38	157.4
1778.92	133.424
1777.46	160.764
1775.99	160.735
1774.53	126.513
1773.07	121.362
1771.61	135.012
1770.14	124.736
1768.68	124.713
1767.22	145.187
1765.75	122.96
1764.29	124.645
1762.82	141.694
1761.36	134.841
1759.89	168.947
1758.43	119.436
1756.96	126.238
1755.5	144.977
1754.03	92.0862
1752.57	143.219
1751.1	129.556
1749.63	141.463
1748.17	131.213
1746.7	139.708
1745.23	136.276
1743.76	120.923
1742.29	112.386
1740.83	154.929
1739.36	141.283
1737.89	154.873
1736.42	125.918
1734.95	95.2717
1733.48	149.685
1732.01	168.366
1730.54	120.725
1729.07	144.504
1727.6	127.48
1726.13	139.353
1724.66	130.832
1723.18	147.796
1721.71	127.388
1720.24	129.063
1718.77	122.248
1717.3	140.899
1715.82	152.754
1714.35	145.938
1712.88	101.799
1711.4	144.189
1709.93	125.506
1708.45	127.179
1706.98	178.019
1705.5	137.304
1704.03	147.448
1702.55	142.337
1701.08	121.981
1699.6	138.898
1698.13	147.34
1696.65	104.982
1695.17	142.208
1693.7	145.567
1692.22	148.925
1690.74	104.906
1689.26	113.345
1687.79	130.239
1686.31	113.304
1684.83	131.882
1683.35	133.548
1681.87	160.567
1680.39	136.88
1678.91	146.992
1677.43	138.519
1675.95	146.938
1674.47	151.978
1672.99	143.508
1671.51	175.555
1670.03	136.705
1668.55	141.742
1667.06	156.901
1665.58	107.955
1664.1	155.157
1662.62	145.012
1661.13	160.158
1659.65	190.469
1658.17	129.765
1656.68	96.0422
1655.2	176.888
1653.72	148.222
1652.23	154.931
1650.75	121.228
1649.26	129.623
1647.78	129.599
1646.29	134.624
1644.8	153.107
1643.32	142.986
1641.83	146.324
1640.34	151.342
1638.86	189.983
1637.37	179.863
1635.88	181.511
1634.4	122.665
1632.91	137.763
1631.42	174.692
1629.93	178.019
1628.44	162.875
1626.95	120.875
1625.46	171.208
1623.97	156.073
1622.48	189.602
1620.99	144.273
1619.5	166.051
1618.01	132.481
1616.52	194.494
1615.03	165.96
1613.54	175.986
1612.05	172.602
1610.55	144.088
1609.06	195.991
1607.57	174.183
1606.08	205.967
1604.58	227.694
1603.09	234.348
1601.6	264.43
1600.1	262.708
1598.61	361.367
1597.11	391.409
1595.62	386.321
1594.12	404.643
1592.63	354.416
1591.13	366.051
1589.64	314.178
1588.14	299.083
1586.64	305.711
1585.15	263.899
1583.65	235.461
1582.15	202.026
1580.65	238.714
1579.16	228.656
1577.66	191.902
1576.16	180.188
1574.66	195.168
1573.16	193.465
1571.66	165.082
1570.16	216.735
1568.66	183.357
1567.16	193.323
1565.66	166.627
1564.16	189.92
1562.66	183.223
1561.16	194.847
1559.66	184.821
1558.16	144.833
1556.65	206.391
1555.15	234.644
1553.65	146.417
1552.15	177.998
1550.64	156.343
1549.14	152.989
1547.64	214.477
1546.13	187.841
1544.63	166.201
1543.12	144.568
1541.62	136.234
1540.11	151.159
1538.61	187.669
1537.1	200.918
1535.6	182.62
1534.09	132.79
1532.59	217.403
1531.08	232.297
1529.57	149.306
1528.06	154.255
1526.56	192.369
1525.05	174.095
1523.54	134.277
1522.03	147.512
1520.52	165.713
1519.01	173.967
1517.51	192.157
1516	193.778
1514.49	142.409
1512.98	178.806
1511.47	180.429
1509.96	167.156
1508.44	124.103
1506.93	158.822
1505.42	183.604
1503.91	140.572
1502.4	171.963
1500.89	162.012
1499.37	145.453
1497.86	161.952
1496.35	165.227
1494.83	178.413
1493.32	107.358
1491.81	163.485
1490.29	143.642
1488.78	115.553
1487.26	90.7748
1485.75	173.265
1484.23	127.038
1482.72	122.066
1481.2	145.133
1479.69	146.755
1478.17	118.701
1476.65	136.811
1475.14	179.635
1473.62	166.42
1472.1	105.435
1470.58	177.888
1469.07	125.158
1467.55	131.721
1466.03	118.527
1464.51	153.069
1462.99	164.56
1461.47	156.303
1459.95	143.114
1458.43	156.246
1456.91	95.3745
1455.39	146.324
1453.87	156.159
1452.35	110.113
1450.83	133.097
1449.3	119.93
1447.78	124.835
1446.26	110.032
1444.74	121.506
1443.21	160.883
1441.69	137.874
1440.17	123.079
1438.64	111.572
1437.12	146.001
1435.6	109.89
1434.07	109.87
1432.55	127.885
1431.02	159.007
1429.5	121.282
1427.97	152.394
1426.45	116.322
1424.92	170.356
1423.39	144.121
1421.87	126.082
1420.34	145.705
1418.81	134.22
1417.28	150.561
1415.76	106.355
1414.23	143.961
1412.7	130.85
1411.17	129.19
1409.64	143.882
1408.11	117.7
1406.58	127.484
1405.05	130.729
1403.52	124.17
1401.99	137.215
1400.46	119.224
1398.93	112.671
1397.4	151.832
1395.87	135.481
1394.34	179.52
1392.8	122.378
1391.27	164.771
1389.74	122.332
1388.21	140.249
1386.67	159.789
1385.14	97.8117
1383.6	97.7936
1382.07	130.367
1380.54	153.153
1379	172.673
1377.47	115.637
1375.93	136.785
1374.4	157.924
1372.86	125.34
1371.32	99.2766
1369.79	131.802
1368.25	133.404
1366.71	143.139
1365.18	143.113
1363.64	147.964
1362.1	151.188
1360.56	133.281
1359.02	130.006
1357.49	162.478
1355.95	139.705
1354.41	136.431
1352.87	129.91
1351.33	163.981
1349.79	134.732
1348.25	146.068
1346.71	172.003
1345.17	158.993
1343.62	170.318
1342.08	152.447
1340.54	162.147
1339	145.906
1337.46	131.291
1335.91	155.575
1334.37	144.204
1332.83	157.137
1331.28	150.629
1329.74	150.602
1328.2	127.907
1326.65	126.264
1325.11	158.61
1323.56	118.127
1322.02	122.958
1320.47	124.553
1318.93	106.74
1317.38	100.252
1315.83	150.351
1314.29	155.172
1312.74	140.598
1311.19	98.5622
1309.65	126.007
1308.1	85.6043
1306.55	124.345
1305	140.468
1303.45	109.771
1301.9	167.854
1300.35	135.549
1298.8	119.39
1297.25	129.046
1295.7	129.022
1294.15	99.9738
1292.6	161.218
1291.05	112.832
1289.5	138.596
1287.95	96.677
1286.4	125.657
1284.85	125.633
1283.29	93.4024
1281.74	109.486
1280.19	96.5873
1278.63	159.339
1277.08	109.425
1275.53	99.7512
1273.97	167.294
1272.42	104.539
1270.86	149.543
1269.31	122.185
1267.75	144.666
1266.2	144.639
1264.64	154.253
1263.09	120.488
1261.53	97.9783
1259.97	89.9306
1258.42	120.42
1256.86	99.529
1255.3	136.426
1253.74	129.981
1252.18	112.309
1250.63	75.3933
1249.07	113.871
1247.51	105.832
1245.95	99.3995
1244.39	128.234
1242.83	125.004
1241.27	128.186
1239.71	134.57
1238.15	113.723
1236.59	104.093
1235.02	105.675
1233.46	102.453
1231.9	132.844
1230.34	110.416
1228.78	137.595
1227.21	97.5781
1225.65	100.759
1224.09	147.112
1222.52	97.5236
1220.96	124.679
1219.39	153.423
1217.83	119.839
1216.27	83.073
1214.7	89.4465
1213.13	156.502
1211.57	100.59
1210	126.113
1208.44	142.05
1206.87	94.1505
1205.3	135.615
1203.74	121.233
1202.17	106.857
1200.6	63.7833
1199.03	137.109
1197.46	105.203
1195.9	143.432
1194.33	103.571
1192.76	90.8065
1191.19	101.939
1189.62	140.14
1188.05	97.1245
1186.48	114.617
1184.91	82.7638
1183.34	143.218
1181.76	112.962
1180.19	97.0339
1178.62	98.6063
1177.05	87.457
1175.48	116.058
1173.9	143.058
1172.33	109.657
1170.76	79.447
1169.18	88.964
1167.61	90.5357
1166.03	130.22
1164.46	103.204
1162.88	84.1352
1161.31	133.321
1159.73	101.559
1158.16	107.887
1156.58	112.625
1155.01	133.222
1153.43	93.555
1151.85	118.904
1150.28	145.828
1148.7	155.309
1147.12	117.252
1145.54	82.3782
1143.96	175.813
1142.39	118.77
1140.81	91.8319
1139.23	137.722
1137.65	121.869
1136.07	112.352
1134.49	120.241
1132.91	109.146
1131.33	102.8
1129.75	120.174
1128.16	101.18
1126.58	79.0323
1125	129.589
1123.42	102.703
1121.84	96.3652
1120.25	121.619
1118.67	110.542
1117.09	115.258
1115.5	137.336
1113.92	105.745
1112.33	94.6791
1110.75	86.7729
1109.16	99.3758
1107.58	96.203
1105.99	83.5706
1104.41	102.473
1102.82	110.335
1101.24	137.105
1099.65	121.323
1098.06	63.0131
1096.47	111.827
1094.89	81.8863
1093.3	133.828
1091.71	83.4297
1090.12	81.8403
1088.53	116.443
1086.94	106.982
1085.36	88.0861
1083.77	124.241
1082.18	95.915
1080.59	58.167
1079	105.31
1077.4	130.434
1075.81	116.269
1074.22	69.1197
1072.63	106.801
1071.04	103.641
1069.45	119.321
1067.85	127.148
1066.26	103.582
1064.67	97.2864
1063.07	109.819
1061.48	152.149
1059.89	76.8443
1058.29	109.757
1056.7	103.466
1055.1	134.794
1053.51	112.829
1051.91	114.375
1050.31	89.2897
1048.72	128.428
1047.12	106.481
1045.52	106.461
1043.93	109.572
1042.33	100.161
1040.73	59.4594
1039.13	89.1724
1037.54	125.131
1035.94	115.724
1034.34	111.012
1032.74	112.554
1031.14	114.096
1029.54	110.949
1027.94	151.55
1026.34	79.6659
1024.74	118.695
1023.14	96.8123
1021.54	140.508
1019.93	85.8496
1018.33	106.121
1016.73	159.152
1015.13	99.8414
1013.53	137.256
1011.92	135.671
1010.32	123.172
1008.71	135.62
1007.11	155.855
1005.51	112.195
1003.9	151.123
1002.3	154.21
1000.69	84.0986
999.086	133.91
