2999.69	2102.77
2998.44	2012.56
2997.19	1910.01
2995.94	2015.89
2994.7	1967.46
2993.45	2003.18
2992.2	1934.74
2990.95	1962.45
2989.7	1978.13
2988.45	2001.81
2987.2	2009.48
2985.96	1977.12
2984.71	2000.79
2983.46	1906.43
2982.21	1986.11
2980.96	1921.78
2979.71	1921.45
2978.45	1955.11
2977.2	1940.78
2975.95	1958.44
2974.7	1960.1
2973.45	1901.83
2972.2	1927.47
2970.95	1887.2
2969.69	2008.68
2968.44	1958.43
2967.19	2023.96
2965.94	1977.72
2964.68	1963.41
2963.43	1941.13
2962.18	1996.65
2960.92	2000.3
2959.67	1928.17
2958.42	1941.8
2957.16	1941.47
2955.91	1973.03
2954.65	2032.47
2953.4	2008.21
2952.14	1956.08
2950.89	1969.69
2949.63	1981.3
2948.38	1879.42
2947.12	1938.82
2945.86	1920.58
2944.61	1938.16
2943.35	1892.07
2942.1	1961.36
2940.84	1925.23
2939.58	1899.05
2938.32	1882.82
2937.07	1878.52
2935.81	1898.08
2934.55	1877.88
2933.29	1903.39
2932.03	1909.02
2930.77	1886.85
2929.52	1956.03
2928.26	1955.69
2927	1915.66
2925.74	1980.83
2924.48	1986.44
2923.22	1829.36
2921.96	1981.8
2920.7	1888.24
2919.44	1953.36
2918.18	1929.23
2916.91	1917
2915.65	1910.73
2914.39	1916.35
2913.13	1941.78
2911.87	1943.43
2910.61	1933.19
2909.34	1869.49
2908.08	1910.75
2906.82	1936.16
2905.56	1953.64
2904.29	1947.37
2903.03	1911.42
2901.76	1833.94
2900.5	1885.05
2899.24	1940.1
2897.97	1844.86
2896.71	1870.24
2895.44	1996.43
2894.18	1940.75
2892.91	2007.6
2891.65	1944.04
2890.38	1921.98
2889.12	1899.92
2887.85	1946.99
2886.58	1994.04
2885.32	1958.16
2884.05	1886.78
2882.78	1892.37
2881.52	1929.54
2880.25	1881.86
2878.98	1883.51
2877.71	1960.09
2876.45	1902.58
2875.18	1949.57
2873.91	1931.49
2872.64	1933.13
2871.37	1798.83
2870.1	1869.43
2868.83	1898.66
2867.56	1876.67
2866.29	1964.95
2865.02	1838.62
2863.75	1893.42
2862.48	1958.03
2861.21	1888.83
2859.94	1878.67
2858.67	1909.82
2857.4	1933.09
2856.13	1903.27
2854.86	1806.61
2853.58	1845.61
2852.31	1910.15
2851.04	1852.84
2849.77	1927.17
2848.49	1948.45
2847.22	1950.08
2845.95	1882.98
2844.67	1892.48
2843.4	1925.52
2842.13	1952.66
2840.85	1822.83
2839.58	1863.71
2838.3	1741.78
2837.03	1914.06
2835.75	1905.89
2834.48	1874.19
2833.2	1915.03
2831.93	1918.62
2830.65	1961.4
2829.38	1843.52
2828.1	1833.41
2826.82	1868.35
2825.55	1858.23
2824.27	1891.2
2822.99	1875.21
2821.71	1914.03
2820.44	1945.01
2819.16	1762.73
2817.88	1785.9
2816.6	1856
2815.32	1863.5
2814.05	1917.92
2812.77	1843.31
2811.49	1817.59
2810.21	1938.43
2808.93	1912.7
2807.65	1851.81
2806.37	1865.16
2805.09	1855.08
2803.81	1807.9
2802.53	1901.29
2801.25	1817.04
2799.97	1908.44
2798.68	1810.56
2797.4	1884.38
2796.12	1796.29
2794.84	1895.43
2793.56	1885.35
2792.27	1849.94
2790.99	1892.5
2789.71	1892.17
2788.42	1923.02
2787.14	1877.89
2785.86	1889.25
2784.57	1931.77
2783.29	1923.64
2782.01	1878.54
2780.72	1796.47
2779.44	1949.89
2778.15	1906.75
2776.87	1943.39
2775.58	1843.86
2774.3	1946.61
2773.01	1839.33
2771.72	2035.36
2770.44	1930.05
2769.15	1877.25
2767.86	1851.67
2766.58	1913.51
2765.29	1961.74
2764	1920.62
2762.72	1933.88
2761.43	1987.9
2760.14	1911.86
2758.85	2006.62
2757.56	1990.76
2756.27	2038.91
2754.99	1968.73
2753.7	1941.24
2752.41	2074.7
2751.12	2033.63
2749.83	2010.02
2748.54	2011.61
2747.25	2055.83
2745.96	2034.16
2744.67	2060.93
2743.38	2141.91
2742.08	2139.61
2740.79	2158.6
2739.5	2152.42
2738.21	2192.69
2736.92	2294.86
2735.63	2275.12
2734.33	2210.89
2733.04	2318.81
2731.75	2337.75
2730.45	2437.88
2729.16	2483.85
2727.87	2473.75
2726.57	2653.03
2725.28	2695.07
2723.99	2775.74
2722.69	2732.77
2721.4	2842.36
2720.1	3056.17
2718.81	3148.29
2717.51	3230.74
2716.21	3415.42
2714.92	3499.72
2713.62	3730.59
2712.33	3841.8
2711.03	4072.53
2709.73	4445.85
2708.44	4396.89
2707.14	4779.66
2705.84	4969.6
2704.54	5211.5
2703.25	5455.23
2701.95	5691.18
2700.65	5886.61
2699.35	5981.86
2698.05	5938.47
2696.75	6116.43
2695.45	6103.83
2694.16	6154.72
2692.86	6126.72
2691.56	6052.58
2690.26	5934.23
2688.96	5762.09
2687.66	5534.26
2686.35	5356.49
2685.05	5211.44
2683.75	4953.08
2682.45	4658.32
2681.15	4402.07
2679.85	4211.2
2678.55	4045.35
2677.24	3816.22
2675.94	3592.92
2674.64	3434.94
2673.33	3334.58
2672.03	3172.86
2670.73	2990.11
2669.42	2912.88
2668.12	2778.17
2666.82	2691.42
2665.51	2598.96
2664.21	2500.78
2662.9	2431.37
2661.6	2333.25
2660.29	2283.05
2658.99	2297.97
2657.68	2261.19
2656.37	2188.06
2655.07	2093.89
2653.76	2124.15
2652.46	2121.87
2651.15	2108.11
2649.84	2059.93
2648.53	2042.36
2647.23	1969.35
2645.92	1980.48
2644.61	1978.22
2643.3	1918.64
2641.99	1922.13
2640.69	1952.36
2639.38	1854.61
2638.07	1844.74
2636.76	1903.61
2635.45	1912.82
2634.14	1866.68
2632.83	1858.73
2631.52	1768.73
2630.21	1850.45
2628.9	1878.74
2627.59	1849.81
2626.28	1784.66
2624.96	1862.51
2623.65	1734.48
2622.34	1800.88
2621.03	1770.08
2619.72	1758.34
2618.4	1798.04
2617.09	1795.82
2615.78	1814.55
2614.46	1829.46
2613.15	1741.59
2611.84	1758.41
2610.52	1735.28
2609.21	1746.39
2607.89	1723.26
2606.58	1804.74
2605.27	1707.45
2603.95	1754.68
2602.63	1727.77
2601.32	1704.66
2600	1820.27
2598.69	1776.26
2597.37	1663.88
2596.06	1644.6
2594.74	1771.53
2593.42	1712.37
2592.1	1715.87
2590.79	1730.76
2589.47	1715.28
2588.15	1705.49
2586.83	1636.91
2585.52	1739.03
2584.2	1721.67
2582.88	1715.68
2581.56	1675.58
2580.24	1743.51
2578.92	1642.78
2577.6	1678.49
2576.28	1672.52
2574.96	1694.95
2573.64	1732.53
2572.32	1690.57
2571	1654.32
2569.68	1761.9
2568.36	1733.21
2567.04	1708.32
2565.71	1743.96
2564.39	1662.33
2563.07	1667.72
2561.75	1710.91
2560.42	1676.59
2559.1	1670.62
2557.78	1693.01
2556.46	1647.37
2555.13	1735.86
2553.81	1735.56
2552.48	1667.28
2551.16	1712.3
2549.84	1615.74
2548.51	1649.42
2547.19	1579.32
2545.86	1609.23
2544.54	1603.29
2543.21	1721.82
2541.88	1600.85
2540.56	1642.04
2539.23	1630.45
2537.9	1605.66
2536.58	1690.17
2535.25	1678.58
2533.92	1697.12
2532.6	1612.08
2531.27	1773.73
2529.94	1632.22
2528.61	1680.88
2527.28	1669.29
2525.96	1665.24
2524.63	1629.2
2523.3	1657.13
2521.97	1677.53
2520.64	1673.48
2519.31	1690.1
2517.98	1633.42
2516.65	1616.22
2515.32	1651.64
2513.99	1688.92
2512.66	1621.01
2511.33	1613.21
2509.99	1652.36
2508.66	1663.34
2507.33	1700.59
2506	1698.42
2504.67	1722.51
2503.33	1664.05
2502	1693.77
2500.67	1734.74
2499.33	1680.06
2498	1751
2496.67	1748.82
2495.33	1711.04
2494	1660.14
2492.66	1616.77
2491.33	1734.49
2489.99	1685.49
2488.66	1655.24
2487.32	1741.07
2485.99	1684.61
2484.65	1738.59
2483.32	1758.87
2481.98	1764.17
2480.64	1760.12
2479.31	1763.55
2477.97	1669.75
2476.63	1751.72
2475.29	1680.38
2473.96	1724.94
2472.62	1776.96
2471.28	1812.14
2469.94	1720.3
2468.6	1650.9
2467.26	1693.56
2465.93	1711.93
2464.59	1827.36
2463.25	1813.97
2461.91	1787.53
2460.57	1770.43
2459.23	1753.33
2457.89	1732.51
2456.55	1689.32
2455.2	1793.43
2453.86	1705.51
2452.52	1701.48
2451.18	1723.54
2449.84	1678.53
2448.5	1655.88
2447.15	1620.21
2445.81	1657.16
2444.47	1744.37
2443.12	1600.74
2441.78	1648.85
2440.44	1678.33
2439.09	1661.29
2437.75	1688.9
2436.41	1662.57
2435.06	1584.19
2433.72	1621.09
2432.37	1602.22
2431.03	1568.49
2429.68	1635.1
2428.33	1588.37
2426.99	1632.67
2425.64	1602.67
2424.3	1594.96
2422.95	1564.98
2421.6	1555.42
2420.26	1621.96
2418.91	1669.92
2417.56	1582.43
2416.21	1554.33
2414.86	1518.82
2413.52	1577.89
2412.17	1531.27
2410.82	1584.75
2409.47	1591.89
2408.12	1604.58
2406.77	1539.46
2405.42	1557.71
2404.07	1535.21
2402.72	1573.82
2401.37	1540.23
2400.02	1501.09
2398.67	1545.24
2397.32	1539.41
2395.97	1537.29
2394.61	1531.47
2393.26	1607.03
2391.91	1542.03
2390.56	1551
2389.21	1600.63
2387.85	1581.87
2386.5	1550.19
2385.15	1583.16
2383.79	1573.65
2382.44	1527.21
2381.09	1582.33
2379.73	1545.13
2378.38	1559.63
2377.02	1575.96
2375.67	1512.95
2374.31	1544.04
2372.96	1516.11
2371.6	1519.53
2370.24	1487.92
2368.89	1568.77
2367.53	1503.98
2366.18	1518.46
2364.82	1453.71
2363.46	1523.45
2362.1	1541.6
2360.75	1521.07
2359.39	1513.44
2358.03	1549.99
2356.67	1505.55
2355.31	1527.36
2353.95	1512.38
2352.6	1534.18
2351.24	1532.07
2349.88	1541
2348.52	1432.25
2347.16	1487.15
2345.8	1488.72
2344.44	1471.92
2343.08	1519.43
2341.72	1550.39
2340.35	1506.04
2338.99	1491.09
2337.63	1498.17
2336.27	1448.34
2334.91	1493.97
2333.54	1523.06
2332.18	1416.38
2330.82	1522.53
2329.46	1513.09
2328.09	1470.65
2326.73	1545.56
2325.36	1484.79
2324	1413.05
2322.64	1504.43
2321.27	1507.83
2319.91	1509.39
2318.54	1479.82
2317.18	1475.9
2315.81	1482.96
2314.45	1501
2313.08	1502.57
2311.71	1469.37
2310.35	1469.11
2308.98	1490.8
2307.61	1415.55
2306.25	1501.24
2304.88	1475.38
2303.51	1462.33
2302.14	1443.79
2300.77	1412.48
2299.41	1578.48
2298.04	1468.6
2296.67	1446.43
2295.3	1449.82
2293.93	1539.03
2292.56	1536.93
2291.19	1436.28
2289.82	1357.57
2288.45	1468.61
2287.08	1393.57
2285.71	1468.09
2284.34	1460.54
2282.97	1482.16
2281.6	1447.27
2280.22	1481.64
2278.85	1499.6
2277.48	1479.29
2276.11	1440.78
2274.73	1498.8
2273.36	1403.85
2271.99	1421.81
2270.61	1468.88
2269.24	1486.82
2267.87	1421.06
2266.49	1469.92
2265.12	1504.22
2263.74	1500.32
2262.37	1463.69
2260.99	1507.06
2259.62	1437.72
2258.24	1437.47
2256.87	1433.58
2255.49	1451.49
2254.11	1384.03
2252.74	1431
2251.36	1439.83
2249.98	1419.61
2248.61	1508.29
2247.23	1457.21
2245.85	1446.07
2244.47	1465.77
2243.09	1449.18
2241.71	1363.7
2240.34	1396.09
2238.96	1444.79
2237.58	1391.97
2236.2	1498.64
2234.82	1449.46
2233.44	1452.82
2232.06	1381.93
2230.68	1463.17
2229.3	1433.95
2227.92	1488
2226.53	1390
2225.15	1429.56
2223.77	1403.98
2222.39	1403.73
2221.01	1450.51
2219.62	1419.51
2218.24	1384.91
2216.86	1361.16
2215.47	1330.2
2214.09	1404.05
2212.71	1429.09
2211.32	1454.13
2209.94	1423.17
2208.55	1368.74
2207.17	1464.19
2205.78	1406.16
2204.4	1422.16
2203.01	1452.58
2201.63	1403.61
2200.24	1426.81
2198.86	1422.95
2197.47	1498.43
2196.08	1438.67
2194.7	1348.29
2193.31	1409.33
2191.92	1414.48
2190.53	1421.44
2189.15	1413.98
2187.76	1428.14
2186.37	1453.09
2184.98	1386.22
2183.59	1423.78
2182.2	1326.34
2180.81	1389.08
2179.42	1426.62
2178.03	1402.98
2176.64	1445.89
2175.25	1343.15
2173.86	1375.27
2172.47	1403.78
2171.08	1342.43
2169.69	1412.27
2168.3	1349.14
2166.91	1384.82
2165.51	1449.22
2164.12	1337.65
2162.73	1419.99
2161.34	1376.66
2159.94	1487.67
2158.55	1514.32
2157.16	1379.51
2155.76	1379.27
2154.37	1396.95
2152.97	1428.98
2151.58	1346.26
2150.18	1380.08
2148.79	1372.66
2147.39	1341.96
2146	1348.89
2144.6	1438.2
2143.21	1350.2
2141.81	1394.72
2140.41	1315.71
2139.02	1374.53
2137.62	1359.97
2136.22	1375.83
2134.82	1391.69
2133.43	1364.61
2132.03	1341.12
2130.63	1342.67
2129.23	1385.34
2127.83	1386.88
2126.43	1422.37
2125.03	1352.44
2123.63	1373.63
2122.23	1400.18
2120.83	1317.79
2119.43	1396.11
2118.03	1420.85
2116.63	1388.47
2115.23	1402.5
2113.83	1384.41
2112.43	1327.08
2111.03	1417.8
2109.63	1438.94
2108.22	1349.55
2106.82	1399.22
2105.42	1382.93
2104.01	1338.14
2102.61	1350.37
2101.21	1410.69
2099.8	1332.08
2098.4	1426.21
2097	1408.15
2095.59	1315.35
2094.19	1372.06
2092.78	1354.02
2091.38	1312.86
2089.97	1337.53
2088.56	1376.41
2087.16	1312.16
2085.75	1391.92
2084.34	1361.46
2082.94	1348.78
2081.53	1323.66
2080.12	1371.39
2078.72	1367.59
2077.31	1392.21
2075.9	1333.37
2074.49	1411.24
2073.08	1348.87
2071.67	1268.77
2070.27	1392.74
2068.86	1353.47
2067.45	1367.41
2066.04	1338.8
2064.63	1377.56
2063.22	1364.91
2061.81	1403.65
2060.39	1284.68
2058.98	1355.32
2057.57	1250.57
2056.16	1349.52
2054.75	1303.24
2053.34	1283.53
2051.92	1286.84
2050.51	1270.69
2049.1	1316.46
2047.69	1365.76
2046.27	1300.07
2044.86	1301.61
2043.44	1310.22
2042.03	1329.43
2040.62	1376.92
2039.2	1288.31
2037.79	1314.58
2036.37	1393.84
2034.96	1301.75
2033.54	1299.75
2032.12	1356.02
2030.71	1339.89
2029.29	1337.88
2027.88	1282.94
2026.46	1342.7
2025.04	1305.41
2023.62	1252.26
2022.21	1257.33
2020.79	1276.5
2019.37	1334.44
2017.95	1249.6
2016.53	1355.11
2015.11	1266.78
2013.69	1291.21
2012.28	1275.13
2010.86	1311.88
2009.44	1242.98
2008.02	1263.88
2006.59	1261.9
2005.17	1295.1
2003.75	1273.76
2002.33	1317.51
2000.91	1340.13
1999.49	1200.98
1998.07	1253.51
1996.64	1240.98
1995.22	1333.9
1993.8	1245.8
1992.38	1289.5
1990.95	1285.76
1989.53	1278.5
1988.11	1236.13
1986.68	1241.18
1985.26	1263.77
1983.83	1302.15
1982.41	1287.88
1980.98	1219.23
1979.56	1264.62
1978.13	1255.62
1976.71	1181.76
1975.28	1244.66
1973.85	1291.76
1972.43	1221.43
1971	1242.23
1969.57	1250.77
1968.15	1189.24
1966.72	1227.56
1965.29	1246.59
1963.86	1311.14
1962.43	1237.4
1961	1265.17
1959.58	1315.68
1958.15	1269.97
1956.72	1334.45
1955.29	1232.79
1953.86	1218.58
1952.43	1192.14
1951	1265.33
1949.57	1261.61
1948.13	1233.43
1946.7	1315.3
1945.27	1250.45
1943.84	1253.72
1942.41	1246.51
1940.98	1221.85
1939.54	1219.88
1938.11	1240.6
1936.68	1249.1
1935.24	1261.09
1933.81	1293.99
1932.38	1295.5
1930.94	1279.58
1929.51	1131.2
1928.07	1315.72
1926.64	1181.32
1925.2	1233.37
1923.77	1245.34
1922.33	1213.77
1920.9	1215.29
1919.46	1284.71
1918.03	1277.51
1916.59	1322.53
1915.15	1181.36
1913.71	1168.97
1912.28	1231.37
1910.84	1225.93
1909.4	1206.59
1907.96	1218.54
1906.52	1228.75
1905.09	1232
1903.65	1240.47
1902.21	1235.03
1900.77	1226.13
1899.33	1146.03
1897.89	1272.56
1896.45	1230.67
1895.01	1225.24
1893.57	1216.35
1892.13	1230.01
1890.68	1267.94
1889.24	1236.5
1887.8	1196.4
1886.36	1151.11
1884.92	1230.63
1883.47	1150.69
1882.03	1176.48
1880.59	1242.09
1879.14	1228.01
1877.7	1220.86
1876.26	1199.87
1874.81	1170.22
1873.37	1202.9
1871.92	1206.14
1870.48	1224.95
1869.03	1207.43
1867.59	1217.59
1866.14	1174.14
1864.7	1196.41
1863.25	1199.65
1861.8	1187.33
1860.36	1204.4
1858.91	1174.81
1857.46	1169.42
1856.02	1227.93
1854.57	1129.28
1853.12	1173.96
1851.67	1170.3
1850.22	1189.07
1848.77	1192.31
1847.32	1173.12
1845.87	1183.25
1844.43	1220.98
1842.98	1188
1841.53	1134.34
1840.07	1184.12
1838.62	1170.12
1837.17	1175.08
1835.72	1150.75
1834.27	1128.15
1832.82	1140
1831.37	1155.29
1829.91	1170.58
1828.46	1189.3
1827.01	1101.32
1825.56	1156.18
1824.1	1142.21
1822.65	1148.88
1821.19	1188.22
1819.74	1169.1
1818.29	1223.89
1816.83	1166.95
1815.38	1115.19
1813.92	1144.2
1812.47	1173.19
1811.01	1148.94
1809.55	1107.52
1808.1	1117.62
1806.64	1086.52
1805.19	1132.66
1803.73	1178.78
1802.27	1109.95
1800.81	1121.75
1799.36	1135.27
1797.9	1181.36
1796.44	1124.57
1794.98	1110.66
1793.52	1179
1792.06	1135.96
1790.6	1135.75
1789.14	1101.29
1787.68	1128.49
1786.22	1150.54
1784.76	1129.79
1783.3	1172.37
1781.84	1141.36
1780.38	1088.12
1778.92	1135.82
1777.46	1113.38
1775.99	1147.37
1774.53	1119.81
1773.07	1177.73
1771.61	1170.68
1770.14	1095.28
1768.68	1098.5
1767.22	1057.31
1765.75	1104.93
1764.29	1191.81
1762.82	1126.72
1761.36	1087.26
1759.89	1167.27
1758.43	1086.87
1756.96	1107.14
1755.5	1127.41
1754.03	1084.57
1752.57	1130.41
1751.1	1125.09
1749.63	1128.29
1748.17	1174.1
1746.7	1063.14
1745.23	1066.36
1743.76	1134.29
1742.29	1123.86
1740.83	1106.64
1739.36	1108.14
1737.89	1092.62
1736.42	1073.7
1734.95	1095.62
1733.48	1165.17
1732.01	1142.85
1730.54	1118.83
1729.07	1096.53
1727.6	1084.43
1726.13	1080.84
1724.66	1097.63
1723.18	1094.03
1721.71	1037.78
1720.24	1044.39
1718.77	1084.95
1717.3	1067.77
1715.82	1133.77
1714.35	1131.87
1712.88	1153.72
1711.4	1160.3
1709.93	1110.9
1708.45	1078.48
1706.98	1144.41
1705.5	1134.03
1704.03	1103.31
1702.55	1028.56
1701.08	987.709
1699.6	1143.37
1698.13	1092.35
1696.65	1071.83
1695.17	1129.2
1693.7	1040.97
1692.22	1122.02
1690.74	1074.44
1689.26	1089.47
1687.79	1084.19
1686.31	1114.44
1684.83	1107.47
1683.35	1070.08
1681.87	1095.24
1680.39	1086.59
1678.91	1118.49
1677.43	1089.57
1675.95	1064.04
1674.47	1095.93
1672.99	1144.69
1671.51	1093.84
1670.03	1134.15
1668.55	1071.51
1667.06	1125.3
1665.58	1096.42
1664.1	1163.68
1662.62	1136.49
1661.13	1134.59
1659.65	1102.36
1658.17	1120.7
1656.68	1159.25
1655.2	1138.82
1653.72	1135.24
1652.23	1113.14
1650.75	1161.77
1649.26	1129.57
1647.78	1176.49
1646.29	1198.15
1644.8	1302.25
1643.32	1147.25
1641.83	1210.95
1640.34	1193.92
1638.86	1232.37
1637.37	1238.87
1635.88	1245.36
1634.4	1283.79
1632.91	1254.99
1631.42	1258.12
1629.93	1351.94
1628.44	1405.42
1626.95	1339.69
1625.46	1297.49
1623.97	1307.32
1622.48	1323.86
1620.99	1298.45
1619.5	1353.57
1618.01	1408.66
1616.52	1339.66
1615.03	1336.06
1613.54	1422.97
1612.05	1384.17
1610.55	1457.64
1609.06	1392.04
1607.57	1490.6
1606.08	1537.21
1604.58	1545.3
1603.09	1546.7
1601.6	1683.65
1600.1	1840.63
1598.61	1734.9
1597.11	1870.07
1595.62	2098.84
1594.12	2101.8
1592.63	2256.89
1591.13	2385.18
1589.64	2403.13
1588.14	2365.93
1586.64	2208.47
1585.15	2199.71
1583.65	2154.22
1582.15	2031.94
1580.65	1984.83
1579.16	1931.06
1577.66	1863.96
1576.16	1761.84
1574.66	1753.18
1573.16	1642.78
1571.66	1625.81
1570.16	1573.83
1568.66	1500.2
1567.16	1533.25
1565.66	1487.98
1564.16	1486.04
1562.66	1424.14
1561.16	1363.93
1559.66	1436.94
1558.16	1443.34
1556.65	1336.55
1555.15	1396.21
1553.65	1326.08
1552.15	1380.73
1550.64	1367.17
1549.14	1400.18
1547.64	1285.2
1546.13	1298.26
1544.63	1331.27
1543.12	1289.48
1541.62	1299.21
1540.11	1232.53
1538.61	1228.98
1537.1	1261.97
1535.6	1268.38
1534.09	1254.86
1532.59	1264.59
1531.08	1252.74
1529.57	1282.38
1528.06	1230.72
1526.56	1255.37
1525.05	1144.05
1523.54	1201.86
1522.03	1223.19
1520.52	1222.97
1519.01	1240.97
1517.51	1177.79
1516	1200.76
1514.49	1162.45
1512.98	1182.11
1511.47	1152.1
1509.96	1113.82
1508.44	1158.29
1506.93	1182.89
1505.42	1159.52
1503.91	1159.31
1502.4	1114.45
1500.89	1092.75
1499.37	1160.32
1497.86	1097.31
1496.35	1148.33
1494.83	1088.65
1493.32	1109.92
1491.81	1037.05
1490.29	1117.77
1488.78	1094.45
1487.26	1099.2
1485.75	1128.7
1484.23	1098.8
1482.72	1098.59
1481.2	1040.67
1479.69	1071.81
1478.17	1086.45
1476.65	1102.73
1475.14	1079.46
1473.62	1041.36
1472.1	1067.53
1470.58	1062.39
1469.07	1045.73
1467.55	997.784
1466.03	1037.11
1464.51	1076.42
1462.99	1040.02
1461.47	1038.18
1459.95	1034.7
1458.43	1036.16
1456.91	1037.61
1455.39	1060.44
1453.87	1053.66
1452.35	1071.55
1450.83	1023.7
1449.3	1094.15
1447.78	1054.53
1446.26	1049.41
1444.74	1078.77
1443.21	1078.57
1441.69	1038.98
1440.17	974.79
1438.64	1053.37
1437.12	997.397
1435.6	1049.7
1434.07	1056.06
1432.55	1057.51
1431.02	1068.79
1429.5	1024.34
1427.97	994.655
1426.45	1015.77
1424.92	1009.03
1423.39	1010.48
1421.87	1034.86
1420.34	995.376
1418.81	1047.57
1417.28	985.189
1415.76	1039
1414.23	1045.36
1412.7	974.831
1411.17	982.827
1409.64	1030.06
1408.11	1059.3
1406.58	972.477
1405.05	998.443
1403.52	990.09
1401.99	1002.98
1400.46	994.624
1398.93	991.174
1397.4	1043.23
1395.87	1033.25
1394.34	995.521
1392.8	939.86
1391.27	977.208
1389.74	1001.49
1388.21	1035.56
1386.67	1027.21
1385.14	925.95
1383.6	982.826
1382.07	984.274
1380.54	1031.34
1379	1047.44
1377.47	1011.42
1375.93	970.519
1374.4	1002.9
1372.86	1033.64
1371.32	969.981
1369.79	1031.63
1368.25	935.458
1366.71	992.215
1365.18	1034.31
1363.64	1001.6
1362.1	983.536
1360.56	1028.87
1359.02	1044.93
1357.49	995.989
1355.95	1077.03
1354.41	1021.61
1352.87	1050.65
1351.33	1026.1
1349.79	1014.55
1348.25	1032.21
1346.71	1017.42
1345.17	960.445
1343.62	991.087
1342.08	960.09
1340.54	968.019
1339	1018.1
1337.46	972.524
1335.91	998.273
1334.37	994.847
1332.83	976.843
1331.28	947.508
1329.74	947.333
1328.2	888.87
1326.65	929.175
1325.11	946.806
1323.56	941.776
1322.02	944.837
1320.47	925.251
1318.93	933.166
1317.38	897.42
1315.83	915.037
1314.29	979.522
1312.74	921.162
1311.19	954.922
1309.65	943.437
1308.1	933.571
1306.55	902.715
1305	921.923
1303.45	910.452
1301.9	897.371
1300.35	921.41
1298.8	901.878
1297.25	901.711
1295.7	833.807
1294.15	899.764
1292.6	889.924
1291.05	822.06
1289.5	849.304
1287.95	831.422
1286.4	877.986
1284.85	866.548
1283.29	913.089
1281.74	920.97
1280.19	808.113
1278.63	844.982
1277.08	843.215
1275.53	857.539
1273.97	867.031
1272.42	826.663
1270.86	861.885
1269.31	827.963
1267.75	861.565
1266.2	874.261
1264.64	827.502
1263.09	851.446
1261.53	843.256
1259.97	886.459
1258.42	839.732
1256.86	825.128
1255.3	788.059
1253.74	821.611
1252.18	815.041
1250.63	808.473
1249.07	801.907
1247.51	800.155
1245.95	849.706
1244.39	806.269
1242.83	817.337
1241.27	825.197
1239.71	801.013
1238.15	818.483
1236.59	779.896
1235.02	845.397
1233.46	806.82
1231.9	843.482
1230.34	798.518
1228.78	791.97
1227.21	806.219
1225.65	807.669
1224.09	817.112
1222.52	778.59
1220.96	783.241
1219.39	815.058
1217.83	811.71
1216.27	846.705
1214.7	742.726
1213.13	800.078
1211.57	753.626
1210	812.551
1208.44	750.153
1206.87	757.992
1205.3	765.828
1203.74	791.208
1202.17	799.035
1200.6	803.67
1199.03	816.274
1197.46	730.046
1195.9	776.127
1194.33	779.169
1192.76	763.093
1191.19	729.502
1189.62	758.031
1188.05	802.471
1186.48	792.77
1184.91	797.397
1183.34	787.7
1181.76	738.232
1180.19	773.09
1178.62	795.212
1177.05	758.49
1175.48	718.603
1173.9	766.155
1172.33	777.137
1170.76	707.078
1169.18	754.605
1167.61	706.814
1166.03	770.204
1164.46	741.481
1162.88	752.454
1161.31	744.378
1159.73	769.629
1158.16	766.312
1156.58	702.718
1155.01	686.727
1153.43	759.54
1151.85	757.812
1150.28	744.99
1148.7	773.377
1147.12	701.93
1145.54	746.157
1143.96	752.353
1142.39	671.448
1140.81	726.739
1139.23	734.518
1137.65	715.388
1136.07	726.331
1134.49	721.449
1132.91	699.168
1131.33	706.945
1129.75	747.925
1128.16	713.004
1126.58	717.613
1125	682.711
1123.42	704.704
1121.84	680.876
1120.25	701.281
1118.67	637.983
1117.09	710.492
1115.5	648.795
1113.92	683.395
1112.33	656.442
1110.75	681.562
1109.16	678.279
1107.58	684.461
1105.99	695.37
1104.41	660.557
1102.82	669.89
1101.24	713.89
1099.65	674.366
1098.06	649.035
1096.47	615.837
1094.89	598.4
1093.3	677.01
1091.71	593.453
1090.12	661.017
1088.53	671.908
1086.94	627.731
1085.36	706.262
1083.77	707.702
1082.18	696.563
1080.59	683.856
1079	620.856
1077.4	660.027
1075.81	678.757
1074.22	666.063
1072.63	691.067
1071.04	635.977
1069.45	615.447
1067.85	662.424
1066.26	667.008
1064.67	643.345
1063.07	618.123
1061.48	628.987
1059.89	622.596
1058.29	666.382
1056.7	636.471
1055.1	644.188
1053.51	655.037
1051.91	650.214
1050.31	675.155
1048.72	642.139
1047.12	654.545
1045.52	637.201
1043.93	619.862
1042.33	657.306
1040.73	711.948
1039.13	705.557
1037.54	699.168
1035.94	703.728
1034.34	736.43
1032.74	687.831
1031.14	743.968
1029.54	723.513
1027.94	768.686
1026.34	782.6
1024.74	782.453
1023.14	765.13
1021.54	750.935
1019.93	814.791
1018.33	817.759
1016.73	800.441
1015.13	751.93
1013.53	851.611
1011.92	790.633
1010.32	835.699
1008.71	835.542
1007.11	844.736
1005.51	869.51
1003.9	874.02
1002.3	933.047
1000.69	900.166
999.086	942.038
