2999.69	412.936
2998.44	426.968
2997.19	414.87
2995.94	406.784
2994.7	438.771
2993.45	360.572
2992.2	408.579
2990.95	410.512
2989.7	398.429
2988.45	372.337
2987.2	362.267
2985.96	452.256
2984.71	372.147
2983.46	472.106
2982.21	432.023
2980.96	501.942
2979.71	355.898
2978.45	427.804
2977.2	365.77
2975.95	455.636
2974.7	457.556
2973.45	383.563
2972.2	475.377
2970.95	415.384
2969.69	383.366
2968.44	417.239
2967.19	445.112
2965.94	391.153
2964.68	413.035
2963.43	424.934
2962.18	438.824
2960.92	406.84
2959.67	438.675
2958.42	406.702
2957.16	410.619
2955.91	440.443
2954.65	426.419
2953.4	480.138
2952.14	374.484
2950.89	450.1
2949.63	400.242
2948.38	410.128
2947.12	461.813
2945.86	449.793
2944.61	429.817
2943.35	451.629
2942.1	445.584
2940.84	409.708
2939.58	449.409
2938.32	451.32
2937.07	421.425
2935.81	409.428
2934.55	399.422
2933.29	427.17
2932.03	433.056
2930.77	411.134
2929.52	426.951
2928.26	422.907
2927	412.909
2925.74	394.975
2924.48	412.767
2923.22	436.506
2921.96	450.318
2920.7	424.456
2919.44	458.096
2918.18	471.897
2916.91	450.01
2915.65	390.471
2914.39	437.966
2913.13	449.779
2911.87	437.816
2910.61	447.644
2909.34	445.587
2908.08	433.631
2906.82	435.536
2905.56	435.462
2904.29	433.408
2903.03	457.078
2901.76	439.195
2900.5	480.658
2899.24	437.067
2897.97	423.151
2896.71	423.078
2895.44	421.029
2894.18	426.886
2892.91	436.693
2891.65	405.008
2890.38	452.346
2889.12	444.368
2887.85	422.571
2886.58	460.01
2885.32	446.114
2884.05	422.354
2882.78	457.801
2881.52	445.885
2880.25	471.452
2878.98	479.26
2877.71	392.413
2876.45	463.323
2875.18	413.963
2873.91	435.572
2872.64	484.761
2871.37	405.869
2870.1	500.354
2868.83	417.547
2867.56	389.906
2866.29	405.59
2865.02	401.584
2863.75	494.021
2862.48	450.643
2861.21	470.241
2859.94	391.472
2858.67	462.212
2857.4	440.501
2856.13	424.696
2854.86	479.667
2853.58	430.447
2852.31	469.676
2851.04	426.369
2849.77	498.982
2848.49	439.972
2847.22	483.101
2845.95	443.748
2844.67	412.261
2843.4	484.815
2842.13	461.182
2840.85	425.784
2839.58	439.443
2838.3	421.715
2837.03	462.826
2835.75	476.472
2834.48	407.774
2833.2	450.827
2831.93	444.87
2830.65	444.794
2829.38	464.308
2828.1	442.682
2826.82	452.398
2825.55	434.697
2824.27	401.341
2822.99	475.654
2821.71	467.744
2820.44	416.788
2819.16	461.714
2817.88	426.425
2816.6	424.396
2815.32	459.52
2814.05	478.992
2812.77	463.272
2811.49	461.238
2810.21	465.066
2808.93	484.524
2807.65	459.046
2806.37	437.484
2805.09	443.266
2803.81	476.381
2802.53	413.833
2801.25	431.327
2799.97	441.01
2798.68	462.396
2797.4	462.316
2796.12	452.485
2794.84	510.908
2793.56	440.631
2792.27	483.441
2790.99	471.663
2789.71	413.121
2788.42	448.121
2787.14	473.368
2785.86	473.286
2784.57	453.731
2783.29	477.017
2782.01	467.202
2780.72	504.102
2779.44	467.041
2778.15	515.602
2776.87	459.098
2775.58	529.039
2774.3	507.557
2773.01	515.247
2771.72	443.23
2770.44	551.998
2769.15	530.527
2767.86	495.462
2766.58	551.713
2765.29	534.137
2764	541.813
2762.72	572.786
2761.43	533.861
2760.14	551.238
2758.85	595.777
2757.56	514.182
2756.27	533.493
2754.99	552.797
2753.7	546.884
2752.41	566.179
2751.12	591.284
2749.83	589.243
2748.54	633.715
2747.25	604.541
2745.96	588.938
2744.67	650.82
2743.38	677.82
2742.08	747.41
2740.79	695.01
2739.5	714.246
2738.21	756.699
2736.92	777.853
2735.63	793.196
2734.33	843.35
2733.04	849.006
2731.75	866.262
2730.45	889.312
2729.16	933.617
2727.87	1037.82
2726.57	1074.35
2725.28	1132.12
2723.99	1178.29
2722.69	1230.23
2721.4	1384.49
2720.1	1432.52
2718.81	1490.18
2717.51	1623.09
2716.21	1703.85
2714.92	1844.39
2713.62	2013.82
2712.33	2088.69
2711.03	2300.44
2709.73	2452.35
2708.44	2677.46
2707.14	2871.65
2705.84	3191.03
2704.54	3498.73
2703.25	3654.16
2701.95	4050.27
2700.65	4232.5
2699.35	4603.35
2698.05	4935.57
2696.75	5221.49
2695.45	5372.6
2694.16	5679.5
2692.86	5780.47
2691.56	5952.57
2690.26	5809.24
2688.96	5902.44
2687.66	6064.82
2686.35	5948.45
2685.05	5749.49
2683.75	5579.42
2682.45	5347.94
2681.15	5110.78
2679.85	4963.95
2678.55	4490.78
2677.24	4351.79
2675.94	4024.76
2674.64	3803.38
2673.33	3420.91
2672.03	3165.19
2670.73	3057.23
2669.42	2840.01
2668.12	2620.95
2666.82	2447.97
2665.51	2276.96
2664.21	2100.27
2662.9	1973.45
2661.6	1842.84
2660.29	1597.37
2658.99	1568.36
2657.68	1393.86
2656.37	1334.27
2655.07	1236.43
2653.76	1184.55
2652.46	1178.6
2651.15	1067.44
2649.84	1021.36
2648.53	1000.14
2647.23	854.659
2645.92	850.687
2644.61	844.806
2643.3	766.308
2641.99	785.282
2640.69	714.464
2639.38	670.41
2638.07	674.113
2636.76	675.905
2635.45	616.609
2634.14	664.218
2632.83	578.228
2631.52	547.599
2630.21	578.027
2628.9	583.649
2627.59	566.384
2626.28	568.192
2624.96	562.375
2623.65	480.318
2622.34	520.254
2621.03	522.069
2619.72	478.163
2618.4	476.175
2617.09	445.622
2615.78	441.737
2614.46	483.542
2613.15	454.907
2611.84	424.379
2610.52	471.873
2609.21	416.622
2607.89	504.044
2606.58	498.252
2605.27	454.433
2603.95	475.266
2602.63	423.863
2601.32	425.69
2600	471.218
2598.69	448.339
2597.37	408.373
2596.06	450.082
2594.74	463.295
2593.42	434.738
2592.1	423.274
2590.79	457.36
2589.47	440.204
2588.15	428.744
2586.83	438.154
2585.52	424.802
2584.2	434.209
2582.88	470.153
2581.56	407.522
2580.24	401.765
2578.92	411.169
2577.6	428.148
2576.28	393.979
2574.96	412.848
2573.64	391.948
2572.32	410.812
2571	433.454
2569.68	408.776
2568.36	414.381
2567.04	410.525
2565.71	400.997
2564.39	372.559
2563.07	397.075
2561.75	425.364
2560.42	353.463
2559.1	430.885
2557.78	391.13
2556.46	457.183
2555.13	381.549
2553.81	334.27
2552.48	392.746
2551.16	371.911
2549.84	386.946
2548.51	373.668
2547.19	413.228
2545.86	364.105
2544.54	392.335
2543.21	397.924
2541.88	394.084
2540.56	407.212
2539.23	386.407
2537.9	399.531
2536.58	378.735
2535.25	450.258
2533.92	386.137
2532.6	338.988
2531.27	367.173
2529.94	384.052
2528.61	387.75
2527.28	391.446
2525.96	353.745
2524.63	408.241
2523.3	368.67
2521.97	400.576
2520.64	391.105
2519.31	379.757
2517.98	421.043
2516.65	469.832
2515.32	415.259
2513.99	383.249
2512.66	383.182
2511.33	452.601
2509.99	386.803
2508.66	450.566
2507.33	426.086
2506	431.641
2504.67	414.679
2503.33	454.003
2502	435.167
2500.67	421.963
2499.33	420.014
2498	440.563
2496.67	373.007
2495.33	408.549
2494	414.099
2492.66	427.141
2491.33	455.163
2489.99	443.846
2488.66	432.534
2487.32	475.517
2485.99	456.716
2484.65	443.536
2483.32	439.716
2481.98	482.668
2480.64	519.993
2479.31	428.265
2477.97	445.018
2476.63	474.852
2475.29	448.601
2473.96	459.735
2472.62	472.734
2471.28	498.806
2469.94	420.269
2468.6	493.029
2467.26	515.349
2465.93	490.99
2464.59	513.302
2463.25	569.199
2461.91	541.111
2460.57	522.361
2459.23	527.865
2457.89	589.315
2456.55	546.326
2455.2	559.28
2453.86	626.284
2452.52	503.176
2451.18	549.67
2449.84	504.863
2448.5	493.598
2447.15	525.171
2445.81	497.149
2444.47	454.244
2443.12	446.719
2441.78	491.305
2440.44	437.259
2439.09	427.881
2437.75	399.905
2436.41	405.414
2435.06	461.124
2433.72	394.118
2432.37	405.201
2431.03	423.714
2429.68	405.059
2428.33	419.85
2426.99	371.483
2425.64	378.847
2424.3	399.205
2422.95	334.159
2421.6	354.518
2420.26	350.744
2418.91	339.55
2417.56	346.911
2416.21	393.22
2414.86	376.461
2413.52	370.832
2412.17	359.644
2410.82	328.071
2409.47	339.133
2408.12	346.485
2406.77	344.571
2405.42	366.737
2404.07	366.673
2402.72	311.062
2401.37	351.734
2400.02	340.567
2398.67	340.507
2397.32	360.8
2395.97	299.689
2394.61	342.177
2393.26	340.268
2391.91	334.661
2390.56	341.997
2389.21	303.122
2387.85	417.644
2386.5	351.055
2385.15	277.1
2383.79	339.85
2382.44	352.717
2381.09	334.191
2379.73	352.593
2378.38	306.388
2377.02	315.561
2375.67	328.421
2374.31	306.226
2372.96	361.505
2371.6	352.221
2370.24	283.94
2368.89	333.662
2367.53	350.192
2366.18	333.545
2364.82	302.164
2363.46	300.269
2362.1	338.894
2360.75	276.224
2359.39	309.316
2358.03	322.148
2356.67	248.47
2355.31	322.035
2353.95	301.739
2352.6	298.007
2351.24	285.08
2349.88	323.647
2348.52	318.074
2347.16	295.959
2345.8	312.448
2344.44	284.829
2343.08	339.897
2341.72	308.609
2340.35	303.045
2338.99	341.554
2337.63	323.134
2336.27	328.584
2334.91	313.843
2333.54	313.788
2332.18	317.402
2330.82	295.334
2329.46	322.792
2328.09	342.907
2326.73	304.345
2325.36	317.123
2324	344.558
2322.64	353.659
2321.27	342.604
2319.91	304.076
2318.54	304.023
2317.18	329.605
2315.81	320.393
2314.45	309.353
2313.08	236.092
2311.71	265.328
2310.35	329.314
2308.98	279.868
2307.61	250.556
2306.25	268.798
2304.88	314.456
2303.51	288.81
2302.14	350.897
2300.77	270.435
2299.41	297.792
2298.04	314.179
2296.67	283.076
2295.3	299.46
2293.93	284.802
2292.56	341.337
2291.19	317.551
2289.82	302.898
2288.45	293.723
2287.08	255.366
2285.71	279.029
2284.34	326.388
2282.97	257.054
2281.6	275.236
2280.22	307.991
2278.85	331.624
2277.48	337.031
2276.11	338.792
2274.73	302.31
2273.36	267.661
2271.99	274.895
2270.61	311.25
2269.24	282.078
2267.87	298.403
2266.49	301.989
2265.12	296.479
2263.74	303.701
2262.37	292.738
2260.99	274.507
2259.62	296.269
2258.24	272.592
2256.87	290.714
2255.49	334.262
2254.11	288.794
2252.74	266.951
2251.36	279.614
2249.98	334.025
2248.61	266.81
2247.23	270.392
2245.85	317.518
2244.47	270.296
2243.09	297.455
2241.71	301.029
2240.34	302.789
2238.96	304.548
2237.58	357.055
2236.2	277.258
2234.82	336.999
2233.44	311.578
2232.06	275.299
2230.68	318.711
2229.3	291.497
2227.92	320.408
2226.53	311.302
2225.15	273.246
2223.77	313.001
2222.39	307.519
2221.01	262.249
2219.62	301.985
2218.24	301.931
2216.86	336.223
2215.47	271.1
2214.09	321.648
2212.71	281.844
2211.32	354.049
2209.94	297.998
2208.55	294.334
2207.17	299.698
2205.78	265.348
2204.4	314.03
2203.01	277.885
2201.63	288.661
2200.24	317.47
2198.86	330.038
2197.47	284.901
2196.08	245.187
2194.7	255.959
2193.31	279.342
2191.92	275.689
2190.53	259.426
2189.15	324.225
2187.76	266.538
2186.37	309.705
2184.98	295.248
2183.59	282.595
2182.2	278.946
2180.81	280.696
2179.42	284.244
2178.03	316.57
2176.64	276.949
2175.25	320.053
2173.86	262.469
2172.47	343.306
2171.08	291.129
2169.69	244.361
2168.3	280.247
2166.91	310.732
2165.51	272.964
2164.12	290.871
2162.73	263.891
2161.34	251.28
2159.94	283.537
2158.55	252.985
2157.16	297.788
2155.76	294.148
2154.37	281.543
2152.97	258.184
2151.58	229.456
2150.18	249.131
2148.79	277.758
2147.39	256.209
2146	295.573
2144.6	272.237
2143.21	243.537
2141.81	288.254
2140.41	279.252
2139.02	280.992
2137.62	275.574
2136.22	291.627
2134.82	275.476
2133.43	259.33
2132.03	264.649
2130.63	253.874
2129.23	262.767
2127.83	273.443
2126.43	282.329
2125.03	242.974
2123.63	241.145
2122.23	307.181
2120.83	278.557
2119.43	249.942
2118.03	290.952
2116.63	253.423
2115.23	230.181
2113.83	269.389
2112.43	247.936
2111.03	296.043
2109.63	304.906
2108.22	231.759
2106.82	299.45
2105.42	302.961
2104.01	263.707
2102.61	279.694
2101.21	293.893
2099.8	254.662
2098.4	315.155
2097	306.197
2095.59	268.765
2094.19	263.378
2092.78	288.241
2091.38	249.053
2089.97	272.13
2088.56	316.54
2087.16	314.705
2085.75	296.872
2084.34	318.148
2082.94	286.104
2081.53	227.421
2080.12	277.12
2078.72	301.936
2077.31	253.936
2075.9	271.645
2074.49	262.721
2073.08	273.323
2071.67	269.725
2070.27	310.483
2068.86	260.759
2067.45	255.392
2066.04	244.707
2064.63	265.938
2063.22	311.979
2061.81	297.745
2060.39	301.235
2058.98	322.441
2057.57	267.472
2056.16	251.485
2054.75	265.606
2053.34	272.64
2051.92	281.442
2050.51	263.694
2049.1	253.03
2047.69	275.983
2046.27	270.628
2044.86	265.274
2043.44	281.14
2042.03	282.858
2040.62	288.11
2039.2	277.455
2037.79	273.871
2036.37	273.822
2034.96	273.773
2033.54	296.682
2032.12	287.8
2030.71	247.146
2029.29	241.807
2027.88	236.47
2026.46	241.721
2025.04	278.723
2023.62	259.272
2022.21	290.967
2020.79	225.679
2019.37	246.793
2017.95	264.373
2016.53	299.57
2015.11	258.993
2013.69	269.516
2012.28	269.468
2010.86	265.898
2009.44	272.892
2008.02	301.008
2006.59	256.955
2005.17	251.63
2003.75	292.05
2002.33	288.479
2000.91	288.428
1999.49	254.966
1998.07	291.84
1996.64	298.819
1995.22	309.31
1993.8	286.412
1992.38	307.442
1990.95	286.309
1989.53	223.035
1988.11	277.427
1986.68	305.466
1985.26	301.901
1983.83	257.974
1982.41	261.437
1980.98	285.95
1979.56	308.7
1978.13	259.542
1976.71	259.496
1975.28	305.028
1973.85	275.177
1972.43	259.356
1971	304.864
1969.57	269.774
1968.15	280.234
1966.72	252.165
1965.29	243.366
1963.86	281.834
1962.43	241.528
1961	260.734
1959.58	241.442
1958.15	239.649
1956.72	293.823
1955.29	258.798
1953.86	272.738
1952.43	251.713
1951	298.855
1949.57	290.065
1948.13	267.301
1946.7	223.584
1945.27	274.191
1943.84	300.333
1942.41	244.413
1940.98	254.842
1939.54	239.09
1938.11	212.874
1936.68	256.45
1935.24	282.567
1933.81	280.772
1932.38	256.311
1930.94	263.238
1929.51	289.336
1928.07	278.828
1926.64	188.175
1925.2	271.759
1923.77	257.776
1922.33	257.73
1920.9	250.719
1919.46	208.895
1918.03	268.034
1916.59	240.143
1915.15	259.238
1913.71	224.401
1912.28	280.016
1910.84	208.67
1909.4	236.45
1907.96	293.771
1906.52	267.648
1905.09	248.486
1903.65	241.492
1902.21	239.711
1900.77	253.562
1899.33	302.135
1897.89	282.984
1896.45	298.555
1895.01	277.676
1893.57	267.215
1892.13	268.901
1890.68	300.074
1889.24	239.323
1887.8	253.151
1886.36	260.039
1884.92	237.46
1883.47	287.673
1882.03	311.879
1880.59	225.205
1879.14	280.59
1877.7	254.563
1876.26	242.397
1874.81	311.598
1873.37	290.772
1871.92	275.145
1870.48	273.365
1869.03	266.397
1867.59	280.185
1866.14	262.842
1864.7	271.439
1863.25	266.205
1861.8	292.081
1860.36	266.109
1858.91	257.422
1857.46	233.193
1856.02	238.332
1854.57	288.364
1853.12	281.406
1851.67	265.82
1850.22	236.434
1848.77	263.999
1847.32	244.974
1845.87	260.454
1844.43	274.203
1842.98	248.29
1841.53	253.417
1840.07	213.728
1838.62	234.369
1837.17	218.82
1835.72	246.343
1834.27	217.018
1832.82	251.42
1831.37	201.444
1829.91	284.037
1828.46	254.726
1827.01	240.914
1825.56	268.398
1824.1	228.785
1822.65	257.982
1821.19	278.57
1819.74	221.784
1818.29	221.744
1816.83	244.046
1815.38	269.777
1813.92	250.83
1812.47	264.526
1811.01	259.326
1809.55	216.352
1808.1	245.498
1806.64	279.783
1805.19	255.706
1803.73	276.25
1802.27	253.898
1800.81	252.137
1799.36	241.802
1797.9	224.612
1796.44	258.857
1794.98	250.241
1793.52	221.063
1792.06	236.443
1790.6	229.548
1789.14	244.921
1787.68	246.589
1786.22	222.575
1784.76	267.042
1783.3	234.475
1781.84	278.923
1780.38	256.631
1778.92	196.715
1777.46	247.987
1775.99	299.24
1774.53	259.865
1773.07	278.62
1771.61	210.209
1770.14	242.636
1768.68	223.8
1767.22	216.927
1765.75	252.751
1764.29	240.753
1762.82	227.052
1761.36	211.649
1759.89	230.383
1758.43	240.578
1756.96	230.299
1755.5	211.496
1754.03	206.341
1752.57	231.879
1751.1	235.246
1749.63	253.951
1748.17	255.609
1746.7	255.563
1745.23	235.075
1743.76	178.829
1742.29	265.641
1740.83	246.865
1739.36	279.162
1737.89	258.689
1736.42	258.642
1734.95	244.984
1733.48	238.136
1732.01	284.011
1730.54	246.551
1729.07	253.307
1727.6	244.762
1726.13	261.712
1724.66	288.85
1723.18	237.833
1721.71	224.202
1720.24	241.143
1718.77	241.099
1717.3	271.612
1715.82	254.59
1714.35	220.605
1712.88	244.318
1711.4	240.88
1709.93	284.933
1708.45	234.01
1706.98	232.272
1705.5	250.876
1704.03	230.493
1702.55	240.618
1701.08	245.656
1699.6	225.285
1698.13	245.567
1696.65	235.363
1695.17	230.241
1693.7	265.745
1692.22	220.003
1690.74	211.503
1689.26	213.156
1687.79	245.254
1686.31	218.152
1684.83	223.185
1683.35	280.621
1681.87	248.456
1680.39	258.55
1678.91	195.989
1677.43	216.225
1675.95	275.299
1674.47	246.541
1672.99	280.263
1671.51	259.956
1670.03	302.101
1668.55	256.486
1667.06	325.611
1665.58	261.453
1664.1	222.616
1662.62	266.417
1661.13	266.368
1659.65	241.036
1658.17	286.494
1656.68	261.167
1655.2	283.02
1653.72	276.231
1652.23	267.761
1650.75	296.335
1649.26	287.864
1647.78	281.079
1646.29	259.151
1644.8	289.389
1643.32	317.934
1641.83	316.194
1640.34	297.639
1638.86	332.891
1637.37	282.401
1635.88	310.921
1634.4	362.955
1632.91	332.648
1631.42	334.267
1629.93	293.9
1628.44	355.974
1626.95	355.909
1625.46	374.307
1623.97	345.709
1622.48	406.051
1620.99	375.78
1619.5	347.197
1618.01	404.151
1616.52	409.107
1615.03	404.003
1613.54	400.578
1612.05	417.262
1610.55	438.966
1609.06	480.765
1607.57	489.051
1606.08	557.617
1604.58	579.28
1603.09	597.587
1601.6	676.138
1600.1	848.364
1598.61	1048.97
1597.11	1252.84
1595.62	1598.8
1594.12	1929.58
1592.63	2357.2
1591.13	2527.26
1589.64	2568.57
1588.14	2432.77
1586.64	2083.18
1585.15	1773.8
1583.65	1526.32
1582.15	1322.35
1580.65	1121.79
1579.16	1008.09
1577.66	874.408
1576.16	815.853
1574.66	742.307
1573.16	672.124
1571.66	631.981
1570.16	593.52
1568.66	533.403
1567.16	469.975
1565.66	464.891
1564.16	481.465
1562.66	414.75
1561.16	359.718
1559.66	424.589
1558.16	357.921
1556.65	354.527
1555.15	361.118
1553.65	344.414
1552.15	349.341
1550.64	409.153
1549.14	327.595
1547.64	320.885
1546.13	340.774
1544.63	314.119
1543.12	337.325
1541.62	370.491
1540.11	292.352
1538.61	345.444
1537.1	323.794
1535.6	288.871
1534.09	322.015
1532.59	297.063
1531.08	338.49
1529.57	287
1528.06	278.654
1526.56	313.428
1525.05	228.81
1523.54	298.394
1522.03	348.062
1520.52	303.256
1519.01	306.514
1517.51	299.831
1516	296.464
1514.49	316.28
1512.98	314.567
1511.47	309.543
1509.96	354.171
1508.44	301.156
1506.93	302.755
1505.42	256.385
1503.91	296.028
1502.4	340.618
1500.89	302.532
1499.37	347.105
1497.86	297.464
1496.35	308.975
1494.83	292.398
1493.32	298.951
1491.81	312.107
1490.29	351.675
1488.78	311.992
1487.26	318.537
1485.75	264.024
1484.23	273.874
1482.72	287.02
1481.2	277.072
1479.69	319.893
1478.17	285.213
1476.65	275.271
1475.14	332.901
1473.62	296.59
1472.1	288.298
1470.58	284.951
1469.07	296.426
1467.55	347.413
1466.03	293.025
1464.51	288.033
1462.99	352.158
1461.47	312.606
1459.95	330.644
1458.43	319.07
1456.91	297.634
1455.39	364.987
1453.87	345.194
1452.35	330.34
1450.83	326.992
1449.3	271.074
1447.78	289.093
1446.26	295.609
1444.74	333.319
1443.21	308.633
1441.69	298.728
1440.17	272.416
1438.64	311.744
1437.12	303.484
1435.6	329.671
1434.07	296.813
1432.55	321.351
1431.02	319.653
1429.5	322.872
1427.97	311.342
1426.45	285.071
1424.92	293.209
1423.39	342.287
1421.87	307.837
1420.34	289.772
1418.81	330.64
1417.28	279.846
1415.76	296.157
1414.23	345.18
1412.7	317.311
1411.17	335.241
1409.64	300.843
1408.11	331.847
1406.58	357.937
1405.05	331.725
1403.52	323.495
1401.99	279.33
1400.46	336.441
1398.93	303.721
1397.4	316.725
1395.87	326.461
1394.34	362.305
1392.8	298.601
1391.27	336.068
1389.74	324.589
1388.21	334.313
1386.67	347.296
1385.14	355.382
1383.6	301.53
1382.07	348.733
1380.54	309.565
1379	322.54
1377.47	361.569
1375.93	366.387
1374.4	369.576
1372.86	315.79
1371.32	328.752
1369.79	348.217
1368.25	322.123
1366.71	322.063
1365.18	304.115
1363.64	297.554
1362.1	338.141
1360.56	325.076
1359.02	378.643
1357.49	363.95
1355.95	381.752
1354.41	297.224
1352.87	341.014
1351.33	370.175
1349.79	361.99
1348.25	353.808
1346.71	369.97
1345.17	343.943
1343.62	329.281
1342.08	379.495
1340.54	309.701
1339	327.477
1337.46	306.345
1335.91	322.494
1334.37	324.054
1332.83	333.714
1331.28	306.118
1329.74	285.009
1328.2	328.672
1326.65	302.71
1325.11	323.694
1323.56	310.689
1322.02	276.656
1320.47	263.664
1318.93	284.64
1317.38	303.991
1315.83	324.951
1314.29	320.042
1312.74	290.893
1311.19	260.14
1309.65	290.785
1308.1	295.577
1306.55	352.043
1305	256.718
1303.45	326.084
1301.9	237.255
1300.35	282.394
1298.8	280.728
1297.25	270.997
1295.7	233.853
1294.15	278.959
1292.6	307.927
1291.05	227.275
1289.5	240.126
1287.95	265.862
1286.4	278.7
1284.85	322.137
1283.29	276.986
1281.74	251.174
1280.19	246.298
1278.63	268.785
1277.08	296.091
1275.53	250.987
1273.97	294.372
1272.42	283.06
1270.86	265.319
1269.31	276.524
1267.75	284.509
1266.2	302.134
1264.64	276.37
1263.09	260.253
1261.53	279.479
1259.97	271.398
1258.42	287.403
1256.86	235.98
1255.3	235.936
1253.74	256.754
1252.18	275.959
1250.63	243.825
1249.07	267.837
1247.51	253.356
1245.95	288.579
1244.39	275.702
1242.83	258.022
1241.27	227.53
1239.71	259.528
1238.15	275.497
1236.59	265.837
1235.02	281.799
1233.46	281.747
1231.9	233.678
1230.34	257.638
1228.78	230.391
1227.21	228.749
1225.65	241.501
1224.09	238.258
1222.52	212.633
1220.96	273.335
1219.39	244.517
1217.83	239.678
1216.27	233.243
1214.7	258.756
1213.13	241.141
1211.57	226.726
1210	229.877
1208.44	204.297
1206.87	225.004
1205.3	213.794
1203.74	229.706
1202.17	169.057
1200.6	242.377
1199.03	242.331
1197.46	218.376
1195.9	226.304
1194.33	235.822
1192.76	211.882
1191.19	207.064
1189.62	213.395
1188.05	246.792
1186.48	214.908
1184.91	192.585
1183.34	211.645
1181.76	260.927
1180.19	256.106
1178.62	206.755
1177.05	214.667
1175.48	211.447
1173.9	249.557
1172.33	185.941
1170.76	190.673
1169.18	193.814
1167.61	233.487
1166.03	246.148
1164.46	222.285
1162.88	207.957
1161.31	247.597
1159.73	231.682
1158.16	211.013
1156.58	203.043
1155.01	206.177
1153.43	226.752
1151.85	220.368
1150.28	201.306
1148.7	185.42
1147.12	186.97
1145.54	215.451
1143.96	186.9
1142.39	191.616
1140.81	227.996
1139.23	215.29
1137.65	207.336
1136.07	213.627
1134.49	170.869
1132.91	202.474
1131.33	241.975
1129.75	180.261
1128.16	181.808
1126.58	221.29
1125	175.419
1123.42	194.347
1121.84	210.108
1120.25	180.059
1118.67	214.767
1117.09	224.2
1115.5	195.743
1113.92	197.285
1112.33	217.762
1110.75	181.434
1109.16	233.454
1107.58	206.6
1105.99	209.715
1104.41	181.298
1102.82	230.127
1101.24	170.199
1099.65	138.655
1098.06	176.437
1096.47	212.629
1094.89	196.842
1093.3	171.614
1091.71	203.065
1090.12	207.748
1088.53	187.253
1086.94	165.192
1085.36	162.016
1083.77	231.183
1082.18	212.271
1080.59	163.496
1079	212.191
1077.4	169.721
1075.81	202.684
1074.22	202.646
1072.63	168.055
1071.04	202.57
1069.45	213.523
1067.85	196.216
1066.26	204.026
1064.67	196.142
1063.07	205.518
1061.48	224.302
1059.89	172.508
1058.29	208.538
1056.7	167.74
1055.1	195.921
1053.51	231.927
1051.91	189.58
1050.31	227.14
1048.72	186.377
1047.12	191.039
1045.52	219.184
1043.93	184.706
1042.33	245.707
1040.73	226.885
1039.13	250.308
1037.54	248.697
1035.94	256.47
1034.34	287.692
1032.74	297.018
1031.14	290.71
1029.54	356.287
1027.94	353.096
1026.34	307.729
1024.74	356.086
1023.14	356.02
1021.54	394.982
1019.93	405.834
1018.33	372.985
1016.73	433.767
1015.13	444.606
1013.53	444.522
1011.92	474.068
1010.32	488.011
1008.71	472.331
1007.11	540.818
1005.51	565.649
1003.9	582.68
1002.3	626.185
1000.69	621.395
999.086	719.375
