2999.69	1820.13
2998.44	1876.25
2997.19	1883.95
2995.94	1905.67
2994.7	1865.28
2993.45	1915.04
2992.2	1846.62
2990.95	1846.3
2989.7	1882.03
2988.45	1945.76
2987.2	1905.4
2985.96	1752.99
2984.71	1908.75
2983.46	1862.42
2982.21	1912.1
2980.96	1925.78
2979.71	1869.46
2978.45	1893.13
2977.2	1882.82
2975.95	1904.48
2974.7	1904.15
2973.45	1847.89
2972.2	1893.52
2970.95	1955.1
2969.69	1910.84
2968.44	1812.69
2967.19	1892.23
2965.94	1941.79
2964.68	1793.81
2963.43	1897.24
2962.18	1872.98
2960.92	1864.69
2959.67	1880.32
2958.42	1887.97
2957.16	1845.79
2955.91	1887.33
2954.65	1831.21
2953.4	1814.96
2952.14	1786.76
2950.89	1884.05
2949.63	1829.96
2948.38	1839.6
2947.12	1871.14
2945.86	1910.62
2944.61	1844.63
2943.35	1872.17
2942.1	1770.4
2940.84	1937.16
2939.58	1881.15
2938.32	1825.16
2937.07	1804.97
2935.81	1888.14
2934.55	1901.73
2933.29	1901.4
2932.03	1873.27
2930.77	1831.24
2929.52	1993.76
2928.26	1844.51
2927	1812.43
2925.74	1897.47
2924.48	1901.11
2923.22	1908.72
2921.96	1848.88
2920.7	1888.24
2919.44	1876.01
2918.18	1834.06
2916.91	1837.71
2915.65	1869.11
2914.39	1862.84
2913.13	1902.15
2911.87	1870.13
2910.61	1899.52
2909.34	1887.31
2908.08	1837.49
2906.82	1870.83
2905.56	1870.51
2904.29	1925.6
2903.03	1857.99
2901.76	1784.48
2900.5	1803.95
2899.24	1894.62
2897.97	1815.2
2896.71	1872.22
2895.44	1871.9
2894.18	1938.77
2892.91	1813.95
2891.65	1865.01
2890.38	1807.41
2889.12	1815
2887.85	1850.23
2886.58	1847.94
2885.32	1829.86
2884.05	1825.6
2882.78	1831.2
2881.52	1842.73
2880.25	1844.38
2878.98	1755.32
2877.71	1820.09
2876.45	1766.54
2875.18	1819.46
2873.91	1811.27
2872.64	1797.16
2871.37	1924.92
2870.1	1867.46
2868.83	1902.6
2867.56	1843.19
2866.29	1899.97
2865.02	1909.49
2863.75	1895.39
2862.48	1875.38
2861.21	1835.71
2859.94	1878.67
2858.67	1813.44
2857.4	1799.37
2856.13	1932.76
2854.86	1845.93
2853.58	1863.3
2852.31	1811.89
2851.04	1752.63
2849.77	1874.13
2848.49	1875.77
2847.22	1849.92
2845.95	1788.74
2844.67	1919.96
2843.4	1852.89
2842.13	1860.43
2840.85	1879.73
2839.58	1865.67
2838.3	1863.39
2837.03	1792.47
2835.75	1829.42
2834.48	1897.72
2833.2	1850.35
2831.93	1863.75
2830.65	1847.75
2829.38	1837.64
2828.1	1866.71
2826.82	1876.18
2825.55	1826.9
2824.27	1771.77
2822.99	1832.15
2821.71	1843.58
2820.44	1798.25
2819.16	1794.03
2817.88	1838.71
2816.6	1840.35
2815.32	1849.81
2814.05	1796.71
2812.77	1833.54
2811.49	1749.18
2810.21	1805.55
2808.93	1756.4
2807.65	1804.93
2806.37	1814.39
2805.09	1860.94
2803.81	1848.9
2802.53	1881.77
2801.25	1859.98
2799.97	1746.48
2798.68	1798.86
2797.4	1892.18
2796.12	1860.65
2794.84	1887.63
2793.56	1883.4
2792.27	1824.6
2790.99	1849.62
2789.71	1771.36
2788.42	1889.9
2787.14	1844.77
2785.86	1856.14
2784.57	1809.08
2783.29	1853.55
2782.01	1851.29
2780.72	1852.91
2779.44	1883.73
2778.15	1836.71
2776.87	1855.85
2775.58	1839.97
2774.3	1876.6
2773.01	1868.5
2771.72	1877.9
2770.44	1914.5
2769.15	1869.48
2767.86	1939.1
2766.58	1888.26
2765.29	1895.7
2764	1862.36
2762.72	1978.54
2761.43	1962.67
2760.14	1964.27
2758.85	1932.88
2757.56	1977.17
2756.27	1972.95
2754.99	1931.88
2753.7	2005.24
2752.41	2014.59
2751.12	2006.49
2749.83	2058.48
2748.54	2054.24
2747.25	2156.58
2745.96	2131.03
2744.67	2072.55
2743.38	2149.66
2742.08	2168.65
2740.79	2172.15
2739.5	2096.28
2738.21	2175.27
2736.92	2232.94
2735.63	2315.74
2734.33	2328.88
2733.04	2330.42
2731.75	2331.95
2730.45	2399.21
2729.16	2524.44
2727.87	2500.81
2726.57	2664.62
2725.28	2704.73
2723.99	2768.01
2722.69	2848.64
2721.4	2936.98
2720.1	3098.64
2718.81	3219.71
2717.51	3404.43
2716.21	3573.65
2714.92	3711.94
2713.62	3672.72
2712.33	3882.3
2711.03	4163.16
2709.73	4359.09
2708.44	4576.16
2707.14	4937.7
2705.84	5042.83
2704.54	5409.94
2703.25	5461.01
2701.95	5612.22
2700.65	6015.63
2699.35	6216.74
2698.05	6336.94
2696.75	6499.43
2695.45	6667.64
2694.16	6635.71
2692.86	6826.92
2691.56	6831.51
2690.26	6770.72
2688.96	6663.8
2687.66	6551.15
2686.35	6411.64
2685.05	6202.99
2683.75	6201.92
2682.45	5878.13
2681.15	5575.57
2679.85	5221.27
2678.55	5061.01
2677.24	4944.96
2675.94	4667.72
2674.64	4428.96
2673.33	4159.59
2672.03	3984.3
2670.73	3789.9
2669.42	3637.75
2668.12	3514.41
2666.82	3245.43
2665.51	3135.61
2664.21	3156.15
2662.9	3006.16
2661.6	2770.01
2660.29	2727.4
2658.99	2650.33
2657.68	2504.35
2656.37	2465.63
2655.07	2354.19
2653.76	2315.51
2652.46	2351.46
2651.15	2249.67
2649.84	2203.37
2648.53	2191.52
2647.23	2150.99
2645.92	2102.82
2644.61	2092.9
2643.3	2054.32
2641.99	1992.82
2640.69	1973.37
2639.38	1904.27
2638.07	1915.4
2636.76	2012.44
2635.45	1958.64
2634.14	1891.5
2632.83	1904.53
2631.52	1827.87
2630.21	1890.51
2628.9	1869.2
2627.59	1842.18
2626.28	1860.93
2624.96	1797.69
2623.65	1766.88
2622.34	1798.97
2621.03	1743.41
2619.72	1729.77
2618.4	1746.61
2617.09	1763.45
2615.78	1808.84
2614.46	1821.85
2613.15	1669.26
2611.84	1788.86
2610.52	1775.23
2609.21	1721.66
2607.89	1740.38
2606.58	1814.24
2605.27	1781.61
2603.95	1724.26
2602.63	1623.23
2601.32	1736.97
2600	1700.56
2598.69	1713.57
2597.37	1705.67
2596.06	1731.96
2594.74	1790.52
2593.42	1719.97
2592.1	1774.71
2590.79	1632.07
2589.47	1789.28
2588.15	1633.4
2586.83	1727.96
2585.52	1689.73
2584.2	1715.98
2582.88	1601.93
2581.56	1666.1
2580.24	1718.87
2578.92	1767.84
2577.6	1650.07
2576.28	1638.42
2574.96	1651.39
2573.64	1673.83
2572.32	1718.97
2571	1764.1
2569.68	1663.49
2568.36	1655.63
2567.04	1617.51
2565.71	1755.31
2564.39	1632.07
2563.07	1648.81
2561.75	1665.53
2560.42	1642.56
2559.1	1638.5
2557.78	1664.66
2556.46	1683.27
2555.13	1667.86
2553.81	1677.01
2552.48	1625.74
2551.16	1682.09
2549.84	1632.72
2548.51	1609.79
2547.19	1618.95
2545.86	1658.28
2544.54	1690.06
2543.21	1697.31
2541.88	1695.13
2540.56	1677.86
2539.23	1634.22
2537.9	1592.47
2536.58	1626.11
2535.25	1622.06
2533.92	1621.78
2532.6	1604.54
2531.27	1751.13
2529.94	1647.28
2528.61	1639.47
2527.28	1629.77
2525.96	1648.3
2524.63	1634.85
2523.3	1619.51
2521.97	1587.26
2520.64	1585.1
2519.31	1626.19
2517.98	1657.86
2516.65	1633.13
2515.32	1657.28
2513.99	1628.81
2512.66	1669.85
2511.33	1677.07
2509.99	1656.12
2508.66	1659.58
2507.33	1642.4
2506	1589.57
2504.67	1609.93
2503.33	1669.68
2502	1669.39
2500.67	1622.21
2499.33	1657.56
2498	1662.89
2496.67	1626.99
2495.33	1759.76
2494	1598.31
2492.66	1633.63
2491.33	1680.17
2489.99	1634.93
2488.66	1673.96
2487.32	1628.74
2485.99	1738.89
2484.65	1678.7
2483.32	1661.57
2481.98	1698.69
2480.64	1677.82
2479.31	1656.95
2477.97	1624.88
2476.63	1680.68
2475.29	1725.24
2473.96	1752.97
2472.62	1655.5
2471.28	1715
2469.94	1738.98
2468.6	1729.34
2467.26	1702.89
2465.93	1741.8
2464.59	1735.9
2463.25	1741.19
2461.91	1783.8
2460.57	1746.18
2459.23	1785.04
2457.89	1784.73
2456.55	1778.82
2455.2	1782.24
2453.86	1759.56
2452.52	1714.53
2451.18	1762.67
2449.84	1762.36
2448.5	1758.33
2447.15	1702.15
2445.81	1683.23
2444.47	1682.94
2443.12	1613.77
2441.78	1712.12
2440.44	1665.31
2439.09	1700.36
2437.75	1713.08
2436.41	1575.17
2435.06	1606.5
2433.72	1626.67
2432.37	1572.48
2431.03	1594.5
2429.68	1609.09
2428.33	1536.35
2426.99	1588.09
2425.64	1658.38
2424.3	1589.39
2422.95	1568.69
2421.6	1618.53
2420.26	1586.7
2418.91	1499.21
2417.56	1613.97
2416.21	1485.7
2414.86	1544.79
2413.52	1585.31
2412.17	1674.01
2410.82	1532.85
2409.47	1588.18
2408.12	1489.7
2406.77	1569.1
2405.42	1555.86
2404.07	1537.06
2402.72	1566.42
2401.37	1558.74
2400.02	1536.25
2398.67	1610.01
2397.32	1596.77
2395.97	1579.84
2394.61	1551.82
2393.26	1581.14
2391.91	1593.8
2390.56	1521.42
2389.21	1487.89
2387.85	1515.35
2386.5	1544.64
2385.15	1529.59
2383.79	1593.97
2382.44	1577.07
2381.09	1530.63
2379.73	1513.75
2378.38	1543.01
2377.02	1594.41
2375.67	1501.88
2374.31	1475.79
2372.96	1499.51
2371.6	1574.85
2370.24	1563.51
2368.89	1450.79
2367.53	1411.83
2366.18	1595.86
2364.82	1510.82
2363.46	1519.77
2362.1	1475.3
2360.75	1537.65
2359.39	1504.24
2358.03	1533.42
2356.67	1592.05
2355.31	1525.52
2353.95	1562.05
2352.6	1519.47
2351.24	1506.33
2349.88	1513.42
2348.52	1401
2347.16	1459.57
2345.8	1450.13
2344.44	1471.92
2343.08	1416.55
2341.72	1530.19
2340.35	1454.62
2338.99	1474.56
2337.63	1455.94
2336.27	1538.29
2334.91	1416.88
2333.54	1438.65
2332.18	1542.98
2330.82	1480.34
2329.46	1527.76
2328.09	1510.99
2326.73	1505.22
2325.36	1525.12
2324	1436.88
2322.64	1442.12
2321.27	1484.01
2319.91	1450.77
2318.54	1470.66
2317.18	1530.83
2315.81	1477.47
2314.45	1546.77
2313.08	1502.57
2311.71	1505.96
2310.35	1463.62
2308.98	1478
2307.61	1457.62
2306.25	1424.45
2304.88	1447.96
2303.51	1453.19
2302.14	1451.11
2300.77	1492.88
2299.41	1479.82
2298.04	1437.55
2296.67	1484.78
2295.3	1426.09
2293.93	1411.23
2292.56	1398.2
2291.19	1447.23
2289.82	1459.75
2288.45	1417.53
2287.08	1433.7
2285.71	1455.33
2284.34	1455.07
2282.97	1494.92
2281.6	1476.43
2280.22	1448.83
2278.85	1494.13
2277.48	1473.83
2276.11	1477.21
2274.73	1445.99
2273.36	1482.15
2271.99	1454.58
2270.61	1423.38
2269.24	1517.76
2267.87	1333.72
2266.49	1391.7
2265.12	1409.64
2263.74	1451.22
2262.37	1410.96
2260.99	1496.15
2259.62	1414.1
2258.24	1430.2
2256.87	1462.65
2255.49	1484.19
2254.11	1552.95
2252.74	1431
2251.36	1385.36
2249.98	1383.3
2248.61	1448.4
2247.23	1384.62
2245.85	1478.73
2244.47	1471.21
2243.09	1387.52
2241.71	1457.99
2240.34	1457.74
2238.96	1484.67
2237.58	1411.91
2236.2	1422.53
2234.82	1449.46
2233.44	1441.95
2232.06	1380.12
2230.68	1381.69
2229.3	1415.84
2227.92	1440.93
2226.53	1456.97
2225.15	1491.09
2223.77	1391.32
2222.39	1508.65
2221.01	1479.45
2219.62	1468.33
2218.24	1415.64
2216.86	1455.16
2215.47	1458.52
2214.09	1331.77
2212.71	1470.65
2211.32	1352.97
2209.94	1408.72
2208.55	1404.86
2207.17	1382.94
2205.78	1406.16
2204.4	1472.69
2203.01	1467.02
2201.63	1423.46
2200.24	1459.28
2198.86	1433.77
2197.47	1413.68
2196.08	1435.07
2194.7	1433.01
2193.31	1414.73
2191.92	1342.41
2190.53	1430.45
2189.15	1435.6
2187.76	1428.14
2186.37	1465.7
2184.98	1398.83
2183.59	1378.78
2182.2	1425.32
2180.81	1419.67
2179.42	1378.04
2178.03	1329.23
2176.64	1404.53
2175.25	1384.5
2173.86	1378.86
2172.47	1410.97
2171.08	1412.52
2169.69	1396.09
2168.3	1421
2166.91	1343.51
2165.51	1364.82
2164.12	1405.88
2162.73	1400.24
2161.34	1408.97
2159.94	1401.54
2158.55	1433.58
2157.16	1322.11
2155.76	1363.12
2154.37	1339.57
2152.97	1380.57
2151.58	1380.32
2150.18	1367.53
2148.79	1306.36
2147.39	1327.63
2146	1336.35
2144.6	1416.71
2143.21	1373.48
2141.81	1380.4
2140.41	1469.65
2139.02	1333.37
2137.62	1336.71
2136.22	1377.62
2134.82	1363.07
2133.43	1355.67
2132.03	1326.82
2130.63	1348.04
2129.23	1356.73
2127.83	1311.81
2126.43	1445.6
2125.03	1375.66
2123.63	1368.27
2122.23	1407.32
2120.83	1414.21
2119.43	1367.54
2118.03	1385.15
2116.63	1397.39
2115.23	1354.32
2113.83	1320.18
2112.43	1337.78
2111.03	1419.58
2109.63	1396.15
2108.22	1244.37
2106.82	1351.09
2105.42	1395.4
2104.01	1288.25
2102.61	1343.24
2101.21	1280.66
2099.8	1371.26
2098.4	1381.7
2097	1415.27
2095.59	1386.54
2094.19	1398.75
2092.78	1320.21
2091.38	1352
2089.97	1337.53
2088.56	1353.3
2087.16	1360.17
2085.75	1416.81
2084.34	1393.45
2082.94	1426.97
2081.53	1407.17
2080.12	1387.38
2078.72	1328.52
2077.31	1310.52
2075.9	1292.53
2074.49	1393.49
2073.08	1315.14
2071.67	1329.11
2070.27	1367.9
2068.86	1355.24
2067.45	1378.05
2066.04	1301.56
2064.63	1329.69
2063.22	1292.23
2061.81	1281.37
2060.39	1316.58
2058.98	1355.32
2057.57	1333.82
2056.16	1299.93
2054.75	1310.32
2053.34	1349.04
2051.92	1396.59
2050.51	1408.73
2049.1	1295.23
2047.69	1330.38
2046.27	1323.07
2044.86	1372.35
2043.44	1281.93
2042.03	1343.57
2040.62	1405.2
2039.2	1360.77
2037.79	1346.39
2036.37	1314.35
2034.96	1291.15
2033.54	1262.66
2032.12	1350.72
2030.71	1316.94
2029.29	1316.7
2027.88	1267.05
2026.46	1309.17
2025.04	1259.54
2023.62	1340.45
2022.21	1257.33
2020.79	1343.5
2019.37	1311.53
2017.95	1300.72
2016.53	1263.48
2015.11	1349.58
2013.69	1338.77
2012.28	1326.2
2010.86	1287.23
2009.44	1318.69
2008.02	1378.3
2006.59	1339.33
2005.17	1288.06
2003.75	1326.54
2002.33	1284.08
2000.91	1341.89
1999.49	1352.2
1998.07	1276.36
1996.64	1281.41
1995.22	1214.39
1993.8	1310.82
1992.38	1249.09
1990.95	1261.17
1989.53	1260.94
1988.11	1260.71
1986.68	1260.49
1985.26	1279.57
1983.83	1270.57
1982.41	1301.92
1980.98	1268.36
1979.56	1287.42
1978.13	1252.12
1976.71	1290.47
1975.28	1193.82
1973.85	1242.68
1972.43	1256.48
1971	1296.55
1969.57	1287.56
1968.15	1325.86
1966.72	1287.09
1965.29	1265.85
1963.86	1237.62
1962.43	1240.9
1961	1268.67
1959.58	1263.2
1958.15	1179
1956.72	1316.96
1955.29	1260.77
1953.86	1215.08
1952.43	1260.31
1951	1260.09
1949.57	1256.37
1948.13	1146.07
1946.7	1240.19
1945.27	1267.91
1943.84	1302.61
1942.41	1305.87
1940.98	1227.08
1939.54	1230.35
1938.11	1298.18
1936.68	1287.48
1935.24	1224.46
1933.81	1229.47
1932.38	1230.99
1930.94	1185.44
1929.51	1242.75
1928.07	1195.47
1926.64	1271.92
1925.2	1304.79
1923.77	1255.79
1922.33	1286.91
1920.9	1258.82
1919.46	1279.48
1918.03	1270.55
1916.59	1218.12
1915.15	1217.9
1913.71	1254.21
1912.28	1271.37
1910.84	1220.72
1909.4	1288.3
1907.96	1218.54
1906.52	1207.89
1905.09	1318.89
1903.65	1231.78
1902.21	1212.45
1900.77	1238.28
1899.33	1206.81
1897.89	1210.06
1896.45	1235.88
1895.01	1194
1893.57	1218.08
1892.13	1174.49
1890.68	1200.3
1889.24	1241.7
1887.8	1236.28
1886.36	1248.19
1884.92	1197.7
1883.47	1202.68
1882.03	1285.63
1880.59	1198.78
1879.14	1236.67
1877.7	1200.08
1876.26	1253.54
1874.81	1251.58
1873.37	1171.74
1871.92	1239.02
1870.48	1261.29
1869.03	1276.63
1867.59	1253.91
1866.14	1241.58
1864.7	1251.73
1863.25	1177.18
1861.8	1190.79
1860.36	1187.12
1858.91	1211.09
1857.46	1219.51
1856.02	1189.93
1854.57	1225.98
1853.12	1263.74
1851.67	1125.42
1850.22	1195.98
1848.77	1216.47
1847.32	1243.85
1845.87	1191.88
1844.43	1220.98
1842.98	1219.04
1841.53	1144.69
1840.07	1166.89
1838.62	1211.48
1837.17	1194.03
1835.72	1245.5
1834.27	1178.1
1832.82	1183.05
1831.37	1150.13
1829.91	1194.68
1828.46	1166.92
1827.01	1168.43
1825.56	1219.84
1824.1	1214.45
1822.65	1126.52
1821.19	1172.75
1819.74	1194.88
1818.29	1101.85
1816.83	1196.17
1815.38	1144.4
1813.92	1156.22
1812.47	1188.65
1811.01	1136.91
1809.55	1160.75
1808.1	1122.77
1806.64	1156.89
1805.19	1127.51
1803.73	1223.39
1802.27	1159.7
1800.81	1240.1
1799.36	1186.72
1797.9	1131.63
1796.44	1146.86
1794.98	1216.92
1793.52	1170.43
1792.06	1153.09
1790.6	1202.56
1789.14	1111.57
1787.68	1186.71
1786.22	1205.33
1784.76	1170.87
1783.3	1192.91
1781.84	1179.01
1780.38	1142.86
1778.92	1156.34
1777.46	1166.39
1775.99	1138.82
1774.53	1172.81
1773.07	1140.12
1771.61	1170.68
1770.14	1228.56
1768.68	1175.38
1767.22	1147.83
1765.75	1125.42
1764.29	1120.1
1762.82	1125.02
1761.36	1152.12
1759.89	1141.67
1758.43	1098.81
1756.96	1136.14
1755.5	1171.75
1754.03	1159.6
1752.57	1200.31
1751.1	1056.9
1749.63	1126.59
1748.17	1129.79
1746.7	1121.07
1745.23	1040.8
1743.76	1147.91
1742.29	1103.43
1740.83	1137.28
1739.36	1046.86
1737.89	1143.68
1736.42	1157.08
1734.95	1139.86
1733.48	1132.85
1732.01	1090.12
1730.54	1146.04
1729.07	1076.13
1727.6	1167.72
1726.13	1177.7
1724.66	1128.21
1723.18	1158.59
1721.71	1088.74
1720.24	1180.24
1718.77	1171.54
1717.3	1098.33
1715.82	1081.16
1714.35	1111.51
1712.88	1123.18
1711.4	1095.84
1709.93	1090.55
1708.45	1114.09
1706.98	1144.41
1705.5	1096.73
1704.03	1091.45
1702.55	1116.67
1701.08	1114.77
1699.6	1128.12
1698.13	1105.9
1696.65	1061.67
1695.17	1163.06
1693.7	1090.06
1692.22	1100.02
1690.74	1128.58
1689.26	1101.31
1687.79	1155.23
1686.31	1075.54
1684.83	1185.25
1683.35	1124.17
1681.87	1127.35
1680.39	1091.66
1678.91	1170.87
1677.43	1136.87
1675.95	1106.26
1674.47	1094.24
1672.99	1119.36
1671.51	1125.91
1670.03	1162.84
1668.55	1128.88
1667.06	1160.73
1665.58	1150.39
1664.1	1194.03
1662.62	1183.7
1661.13	1107.62
1659.65	1200.12
1658.17	1167.88
1656.68	1228.33
1655.2	1143.87
1653.72	1199.25
1652.23	1215.87
1650.75	1252.69
1649.26	1249.09
1647.78	1240.45
1646.29	1307.54
1644.8	1340.95
1643.32	1214.54
1641.83	1281.59
1640.34	1298.18
1638.86	1302.98
1637.37	1366.62
1635.88	1369.73
1634.4	1312.35
1632.91	1362.51
1631.42	1382.42
1629.93	1356.98
1628.44	1370.16
1626.95	1383.34
1625.46	1383.09
1623.97	1500.31
1622.48	1422.85
1620.99	1429.31
1619.5	1512.91
1618.01	1427.11
1616.52	1458.7
1615.03	1517.11
1613.54	1479.96
1612.05	1526.61
1610.55	1561.51
1609.06	1561.23
1607.57	1545.87
1606.08	1671.18
1604.58	1649.11
1603.09	1683.96
1601.6	1685.32
1600.1	1833.94
1598.61	1949.04
1597.11	2137.7
1595.62	2229.29
1594.12	2354.29
1592.63	2549.45
1591.13	2734.52
1589.64	2866.04
1588.14	2775.29
1586.64	2726.34
1585.15	2757.57
1583.65	2656.87
1582.15	2526.15
1580.65	2362.1
1579.16	2224.81
1577.66	2242.76
1576.16	2172.27
1574.66	2128.5
1573.16	1952.99
1571.66	1879.27
1570.16	1858.92
1568.66	1705.22
1567.16	1669.91
1565.66	1611.29
1564.16	1650.98
1562.66	1524.08
1561.16	1630.39
1559.66	1521.86
1558.16	1511.59
1556.65	1458.05
1555.15	1459.45
1553.65	1432.56
1552.15	1447.27
1550.64	1481.93
1549.14	1403.5
1547.64	1411.56
1546.13	1472.81
1544.63	1452.59
1543.12	1375.89
1541.62	1392.25
1540.11	1401.96
1538.61	1370.15
1537.1	1331.71
1535.6	1366.33
1534.09	1288.06
1532.59	1377.44
1531.08	1292.57
1529.57	1318.87
1528.06	1333.56
1526.56	1280.25
1525.05	1306.54
1523.54	1278.12
1522.03	1266.28
1520.52	1249.48
1519.01	1224.4
1517.51	1219.2
1516	1190.82
1514.49	1250.22
1512.98	1230.12
1511.47	1147.13
1509.96	1194.91
1508.44	1179.8
1506.93	1187.86
1505.42	1187.64
1503.91	1141.12
1502.4	1187.2
1500.89	1206.82
1499.37	1236.35
1497.86	1143.58
1496.35	1169.81
1494.83	1158.03
1493.32	1182.59
1491.81	1177.42
1490.29	1135.93
1488.78	1140.67
1487.26	1150.36
1485.75	1211.21
1484.23	1173.04
1482.72	1157.98
1481.2	1137.97
1479.69	1177.34
1478.17	1117.77
1476.65	1104.38
1475.14	1104.18
1473.62	1127.04
1472.1	1144.96
1470.58	1115.1
1469.07	1113.24
1467.55	1073.52
1466.03	1119.42
1464.51	1150.49
1462.99	1097.62
1461.47	1113.87
1459.95	1141.63
1458.43	1171.02
1456.91	1175.74
1455.39	1078.52
1453.87	1083.25
1452.35	1142.22
1450.83	1077.92
1449.3	1135.23
1447.78	1138.3
1446.26	1166.01
1444.74	1128.03
1443.21	1078.57
1441.69	1103
1440.17	1117.56
1438.64	1097.67
1437.12	1169.64
1435.6	1159.59
1434.07	1100.34
1432.55	1116.53
1431.02	1095.02
1429.5	1173.48
1427.97	1037.26
1426.45	1092.77
1424.92	1123.69
1423.39	999.019
1421.87	1185.5
1420.34	1132.89
1418.81	1127.78
1417.28	1093.2
1415.76	1111
1414.23	1102.61
1412.7	1095.87
1411.17	1087.49
1409.64	1075.84
1408.11	1101.8
1406.58	1091.79
1405.05	1075.25
1403.52	1127.33
1401.99	1078.12
1400.46	1090.98
1398.93	1040.16
1397.4	1062.83
1395.87	1080.59
1394.34	1109.76
1392.8	1065.5
1391.27	1052.25
1389.74	1052.06
1388.21	1126.88
1386.67	1103.85
1385.14	1118.31
1383.6	1069.21
1382.07	994.051
1380.54	1112.81
1379	1083.28
1377.47	1133.57
1375.93	1107.3
1374.4	1155.94
1372.86	1072.71
1371.32	1135.98
1369.79	1139.03
1368.25	1120.92
1366.71	1114.21
1365.18	1122.13
1363.64	1172.33
1362.1	1193.25
1360.56	1163.77
1359.02	1184.68
1357.49	1218.58
1355.95	1237.85
1354.41	1231.13
1352.87	1180.56
1351.33	1240.41
1349.79	1272.65
1348.25	1189.64
1346.71	1228.36
1345.17	1218.4
1343.62	1236.02
1342.08	1149.84
1340.54	1113.95
1339	1186.7
1337.46	1082.74
1335.91	1067.96
1334.37	1082.34
1332.83	1065.94
1331.28	1049.55
1329.74	1049.35
1328.2	1039.44
1326.65	1034.4
1325.11	1043.91
1323.56	1025.92
1322.02	1014.41
1320.47	1033.63
1318.93	941.253
1317.38	1008.99
1315.83	976.47
1314.29	960.126
1312.74	945.403
1311.19	954.922
1309.65	964.438
1308.1	944.877
1306.55	925.323
1305	981.662
1303.45	992.78
1301.9	981.298
1300.35	976.275
1298.8	932.532
1297.25	958.169
1295.7	1011.21
1294.15	973.938
1292.6	957.635
1291.05	896.206
1289.5	965.338
1287.95	940.989
1286.4	929.538
1284.85	921.312
1283.29	951.738
1281.74	959.612
1280.19	962.653
1278.63	943.16
1277.08	905.974
1275.53	944.419
1273.97	918.506
1272.42	907.077
1270.86	902.085
1269.31	914.779
1267.75	914.609
1266.2	882.297
1264.64	899.808
1263.09	891.608
1261.53	888.23
1259.97	915.365
1258.42	929.645
1256.86	868.471
1255.3	874.73
1253.74	898.638
1252.18	871.195
1250.63	914.344
1249.07	952.666
1247.51	878.727
1245.95	889.786
1244.39	899.238
1242.83	887.852
1241.27	830.004
1239.71	889.124
1238.15	898.569
1236.59	879.185
1235.02	864.611
1233.46	894.866
1231.9	864.289
1230.34	897.733
1228.78	875.167
1227.21	868.605
1225.65	818.864
1224.09	890.669
1222.52	852.133
1220.96	845.58
1219.39	915.741
1217.83	880.418
1216.27	835.522
1214.7	840.159
1213.13	857.569
1211.57	798.332
1210	814.147
1208.44	813.995
1206.87	834.589
1205.3	831.242
1203.74	848.634
1202.17	819.768
1200.6	789.318
1199.03	829.028
1197.46	852.784
1195.9	855.812
1194.33	775.983
1192.76	834.783
1191.19	828.256
1189.62	850.396
1188.05	784.957
1186.48	797.546
1184.91	822.863
1183.34	811.57
1181.76	875.059
1180.19	809.677
1178.62	806.345
1177.05	777.572
1175.48	850.559
1173.9	785.229
1172.33	827.992
1170.76	772.225
1169.18	780.024
1167.61	825.94
1166.03	836.902
1164.46	758.946
1162.88	814.365
1161.31	777.708
1159.73	810.887
1158.16	780.591
1156.58	778.859
1155.01	818.363
1153.43	740.512
1151.85	810.13
1150.28	767.181
1148.7	689.383
1147.12	751.05
1145.54	781.009
1143.96	784.031
1142.39	809.222
1140.81	737.822
1139.23	755.097
1137.65	701.143
1136.07	753.232
1134.49	704.045
1132.91	721.314
1131.33	751.228
1129.75	733.694
1128.16	765.175
1126.58	752.387
1125	700.095
1123.42	761.586
1121.84	766.183
1120.25	717.076
1118.67	716.942
1117.09	742.069
1115.5	770.345
1113.92	733.9
1112.33	714.827
1110.75	738.359
1109.16	683.011
1107.58	725.465
1105.99	730.06
1104.41	742.535
1102.82	698.262
1101.24	742.257
1099.65	718.484
1098.06	723.075
1096.47	722.939
1094.89	669.263
1093.3	736.839
1091.71	739.849
1090.12	668.887
1088.53	686.07
1086.94	712.687
1085.36	718.846
1083.77	742.301
1082.18	723.293
1080.59	712.153
1079	759.173
1077.4	707.171
1075.81	648.904
1074.22	692.768
1072.63	736.615
1071.04	683.086
1069.45	719.069
1067.85	632.599
1066.26	687.41
1064.67	635.5
1063.07	690.29
1061.48	701.14
1059.89	694.735
1058.29	674.222
1056.7	719.557
1055.1	730.394
1053.51	706.751
1051.91	676.849
1050.31	700.219
1048.72	685.992
1047.12	767.29
1045.52	735.834
1043.93	754.479
1042.33	680.782
1040.73	771.408
1039.13	724.33
1037.54	783.631
1035.94	764.717
1034.34	764.574
1032.74	783.189
1031.14	765.849
1029.54	815.711
1027.94	801.496
1026.34	835.711
1024.74	815.251
1023.14	851.012
1021.54	839.923
1019.93	853.813
1018.33	877.062
1016.73	900.302
1015.13	884.532
1013.53	875.007
1011.92	937.22
1010.32	1000.97
1008.71	904.132
1007.11	988.123
1005.51	945.864
1003.9	986.193
1002.3	979.777
1000.69	1049.67
999.086	1080.62
