992.106	91.7252
990.498	69.9599
988.89	71.5022
987.281	94.8018
985.672	94.7854
984.063	88.5546
982.454	93.1993
980.844	104.054
979.234	90.0614
977.624	104.018
976.013	82.2689
974.402	85.3585
972.791	74.4817
971.18	94.6373
969.568	96.172
967.956	85.299
966.344	94.5878
964.731	82.1684
963.118	58.9029
961.505	77.4902
959.892	86.7739
958.278	99.1527
956.664	68.1555
955.05	80.5333
953.436	80.5191
951.821	94.4385
950.206	80.4907
948.59	78.9289
946.975	80.4623
945.359	92.8248
943.742	72.6999
942.126	64.9544
940.509	71.1279
938.892	81.9372
937.275	35.5513
935.657	55.6357
934.039	64.8968
932.421	55.6159
930.802	57.1507
929.183	40.1528
927.564	33.9694
925.945	16.9817
924.325	12.3481
922.705	23.1485
921.085	29.3163
919.464	18.5122
917.844	13.8817
916.222	30.8427
914.601	15.4186
912.979	20.0405
911.357	30.8261
909.735	18.4923
908.112	13.8668
906.49	26.1881
904.866	32.3441
903.243	38.498
901.619	29.2532
899.995	10.7756
898.371	13.8518
896.746	18.4657
895.121	24.6165
893.496	12.306
891.871	26.1456
890.245	24.6031
888.619	32.2858
886.992	19.9828
885.366	24.5898
883.739	19.9756
882.111	16.8993
880.484	13.8242
878.856	26.1077
877.228	29.1739
875.599	21.4926
873.97	26.0934
872.341	16.8809
870.712	9.20609
869.082	16.8747
867.452	12.2703
865.822	24.5361
864.192	18.3987
862.561	33.7248
860.93	32.186
859.298	24.5182
857.666	13.789
856.034	24.5092
854.402	18.3785
852.769	24.5002
851.136	26.0267
849.503	44.3903
847.87	21.4259
846.236	13.7712
844.602	13.7687
842.967	15.2958
841.332	18.3515
839.697	32.1093
838.062	25.9884
836.426	18.3414
834.791	22.9225
833.154	21.3904
831.518	32.0796
829.881	21.3825
828.244	22.9056
826.606	30.5351
824.968	12.2118
823.33	38.1547
821.692	21.3627
820.053	13.7306
818.414	16.7787
816.775	13.7255
815.136	25.9212
813.496	15.2449
811.855	21.3389
810.215	36.5742
808.574	16.7601
806.933	19.8036
805.292	30.4615
803.65	21.3191
802.008	21.3151
800.366	22.8333
798.723	19.7852
797.08	13.6949
795.437	24.3419
793.793	13.6898
792.149	25.8536
790.505	19.7667
788.861	19.763
787.216	9.11969
785.571	24.3146
783.925	10.6357
782.28	19.7482
780.634	15.1881
778.987	22.7779
777.341	15.1824
775.694	13.6616
774.046	13.659
772.399	7.58693
770.751	12.1368
769.103	30.3363
767.454	18.1984
765.805	15.1624
764.156	9.09576
762.507	18.1881
760.857	9.09233
759.207	30.3021
757.557	-3.02963
755.906	13.6308
754.255	21.1994
752.604	30.2792
750.952	12.1094
749.3	16.6473
747.648	13.6179
745.995	10.5897
744.343	1.51253
742.689	10.5857
741.036	27.2152
739.382	27.2101
737.728	15.1139
736.074	-1.5111
734.419	9.06487
732.764	24.1684
731.108	16.6126
729.453	15.0995
727.797	33.2127
726.14	25.6595
724.484	10.5637
722.827	6.03523
721.17	21.1193
719.512	22.6235
717.854	3.01589
716.196	22.6149
714.537	31.6548
712.879	10.5496
711.219	15.068
709.56	4.51953
707.9	19.5809
706.24	13.5534
704.58	10.5395
702.919	25.5912
701.258	31.6066
699.597	12.0383
697.935	16.5495
696.273	12.0337
694.611	7.51963
692.948	21.0509
691.285	-9.0201
689.622	13.5276
687.958	16.5305
686.294	18.0299
684.63	18.0264
682.965	24.0306
681.301	27.0292
679.635	18.016
677.97	28.5199
676.304	13.5069
674.638	19.5062
672.971	9.00111
671.305	16.4989
669.638	20.9945
667.97	26.9878
666.302	25.4836
664.634	16.4862
662.966	17.9815
661.297	22.4725
659.628	7.48941
657.959	29.9519
656.289	16.4704
654.619	31.4374
652.949	16.464
651.278	10.4751
649.607	5.98461
647.936	23.9338
646.264	19.4425
644.593	23.9246
642.92	8.97
641.248	8.96827
639.575	19.4275
637.902	13.4472
636.228	7.46923
634.554	17.9227
632.88	11.9462
631.206	20.9017
629.531	29.8538
627.856	22.386
626.18	23.8738
624.504	26.8529
622.828	22.3731
621.152	26.8425
619.475	11.9277
617.798	31.3041
616.12	28.3173
614.443	16.391
612.765	17.8777
611.086	23.8323
609.408	19.36
607.728	16.3783
606.049	19.3525
604.369	14.8836
602.689	28.2734
601.009	20.829
599.328	29.7499
597.647	10.4104
595.966	8.92151
594.284	19.3262
592.602	11.8907
590.92	22.2908
589.237	23.7722
587.554	11.8838
585.871	20.7926
584.188	35.6375
582.504	8.90764
580.819	-4.45295
579.135	17.8083
577.45	20.7723
575.765	13.3511
574.079	13.3484
572.393	29.6574
570.707	17.791
569.02	19.2698
567.333	31.1221
565.646	19.2623
563.959	28.1471
562.271	32.585
560.582	7.40424
558.894	19.2473
557.205	20.7238
555.516	26.6397
553.826	14.7969
552.136	26.6292
550.446	19.2285
548.756	31.0553
547.065	20.6995
545.374	35.4779
543.682	44.3387
541.99	45.8077
540.298	50.2308
538.605	36.9272
536.913	62.0256
535.219	64.9664
533.526	75.2873
531.832	94.4596
530.138	146.089
528.443	185.894
526.749	354.015
525.053	659.224
523.358	1102.91
521.662	1997.53
519.966	2346.46
518.269	1663.71
516.572	829.483
514.875	427.181
513.178	268.04
511.48	170.805
509.782	126.607
508.083	92.7285
506.384	60.3352
504.685	55.9095
502.986	55.8985
501.286	35.2973
499.586	41.1721
497.885	35.2834
496.184	32.3368
494.483	23.513
492.782	24.9777
491.08	22.0348
489.378	30.8426
487.675	33.7734
485.972	23.4899
484.269	27.8887
482.566	20.5455
480.862	29.345
479.157	35.207
477.453	27.8667
475.748	16.1302
474.043	24.9235
472.337	19.0554
470.631	21.9827
468.925	21.9783
467.219	17.5792
465.512	26.3636
463.804	21.9653
462.097	21.9609
460.389	23.4204
458.681	10.2444
456.972	24.8743
455.263	32.1839
453.554	21.9392
451.844	30.7088
450.134	16.0824
448.424	21.9262
446.713	8.76873
445.002	24.8398
443.291	18.9914
441.58	13.1453
439.868	29.2059
438.155	1.46001
436.443	14.5972
434.73	21.8914
433.016	30.6419
431.303	18.965
429.589	26.254
427.874	18.9575
426.159	20.4117
424.444	34.9845
422.729	16.0314
421.013	21.8566
419.297	24.7659
417.581	20.3914
415.864	26.2123
414.147	23.2952
412.43	24.7462
410.712	33.4735
408.994	23.2813
407.275	32.0054
405.556	26.181
403.837	13.0879
402.118	17.447
400.398	23.2581
398.678	23.2534
396.957	31.9671
395.236	14.5276
393.515	27.5969
391.794	20.3305
390.072	10.1632
388.349	14.516
386.627	24.6722
384.904	39.1775
383.181	33.3667
381.457	20.3061
379.733	21.7522
378.009	20.298
376.284	23.1931
374.559	18.8406
372.834	30.4287
371.108	30.4226
369.382	30.4165
367.656	28.9623
365.929	21.7174
364.202	31.8458
362.474	28.9449
360.747	26.0452
359.019	18.8066
357.29	5.78549
355.561	24.5834
353.832	30.3616
352.103	20.237
350.373	28.9042
348.643	15.8941
346.912	21.6694
345.181	36.1085
343.45	23.1048
341.718	25.9876
339.986	36.0867
338.254	34.6362
336.521	30.3006
334.788	25.9667
333.055	28.8461
331.321	17.3041
329.587	34.6013
327.853	27.3872
326.118	43.2342
324.383	30.2578
322.648	51.8601
320.912	18.7235
319.176	23.0396
317.439	11.5175
315.702	40.303
313.965	30.2211
312.228	54.6748
310.49	40.2786
308.752	21.5734
307.013	47.4519
305.274	30.1906
303.535	22.9977
301.795	43.1119
300.055	38.7928
298.315	25.8566
296.574	48.8304
294.833	27.282
293.091	27.2765
291.35	24.4003
289.608	44.4857
287.865	28.6946
286.122	43.0332
284.379	35.8537
282.635	31.5448
280.892	41.5734
279.147	21.4991
277.403	41.5564
275.658	22.923
273.912	32.9451
272.167	20.0495
270.421	27.2044
268.674	35.788
266.928	25.7621
265.18	28.6187
263.433	35.7661
261.685	25.7463
259.937	27.1711
258.188	22.8763
256.44	30.019
254.69	41.4463
252.941	32.8644
251.191	31.4291
249.44	29.9944
247.69	22.8482
245.939	28.5544
244.187	25.6937
242.435	11.4171
240.683	25.6831
238.931	35.6637
237.178	28.5251
235.425	25.6673
233.671	25.662
231.917	18.5299
230.163	22.8013
228.408	25.6462
226.653	24.2164
224.898	21.363
223.142	27.0543
221.386	22.7778
219.63	11.3866
217.873	24.1915
216.116	15.6501
214.358	14.2244
212.6	25.5986
210.842	18.4841
209.083	19.9018
207.324	36.9529
205.565	21.3146
203.805	21.3102
202.045	7.10191
200.285	7.10044
198.524	18.4573
196.763	29.8095
195.001	35.4801
193.239	11.3513
191.477	22.6979
189.714	39.713
187.951	17.0163
186.188	14.1773
184.424	9.92206
182.66	22.6743
180.896	28.337
179.131	16.9986
177.366	15.5788
175.6	12.7437
173.834	15.5723
172.068	14.1537
170.301	24.0563
168.534	21.2217
166.767	28.2897
164.999	32.5264
163.231	21.2084
161.462	19.7904
159.693	22.6128
157.924	24.0211
156.154	11.3017
154.384	33.8979
152.614	29.6545
150.843	14.1182
149.072	25.4074
147.3	15.5235
145.529	21.164
143.756	23.9808
141.984	21.1551
140.211	15.5105
138.437	22.5559
136.664	25.37
134.889	23.9555
133.115	23.9505
131.34	11.2684
129.565	18.3074
127.789	21.1194
126.013	23.9303
124.237	21.1105
122.46	32.3625
120.683	14.0677
118.905	28.1294
117.128	14.0617
115.349	9.84113
113.571	16.8669
111.792	16.8633
110.012	21.0747
108.233	16.8562
106.452	18.257
104.672	2.80817
102.891	4.21135
101.11	28.0697
99.328	7.01593
97.546	5.61155
95.7636	23.844
93.9808	32.2526
92.1976	8.41193
90.414	18.222
88.6301	8.40833
86.8458	7.00545
85.0611	-1.40079
83.276	5.60196
81.4905	9.80132
79.7046	11.1991
77.9184	11.1967
76.1318	2.79857
74.3448	13.9899
72.5574	-2.79737
70.7696	12.5855
68.9814	0
67.1929	22.3645
65.4039	18.1672
63.6146	16.7661
61.8249	1.39688
60.0348	13.9658
58.2443	-2.79255
56.4535	-4.18792
54.6622	8.37402
52.8706	18.1398
51.0786	11.1605
49.2861	23.711
47.4933	1.39446
45.7001	11.1533
43.9065	5.57542
42.1126	8.3613
40.3182	9.75273
38.5234	8.35766
36.7283	23.6749
34.9327	11.1387
33.1368	1.39203
31.3405	1.39173
29.5438	19.48
27.7466	15.3023
25.9491	0
24.1512	12.5146
22.3529	12.5119
20.5543	23.6283
18.7552	25.0128
16.9557	11.1143
